360
-0.065
-0.065
-0.065
-0.065
-0.065
-0.065
-0.065
-0.065
-0.08
-0.08
-0.085
-0.085
-0.075
-0.07
-0.07
-0.065
-0.055
-0.05
-0.05
-0.04
-0.04
-0.055
-0.075
-0.08
-0.085
-0.07
-0.08
-0.08
-0.09
-0.095
-0.09
-0.095
-0.11
-0.12
-0.145
-0.135
-0.105
-0.095
-0.105
-0.12
-0.135
-0.125
-0.125
-0.115
-0.115
-0.125
-0.14
-0.14
-0.13
-0.125
-0.14
-0.145
-0.15
-0.15
-0.13
-0.115
-0.125
-0.135
-0.16
-0.195
-0.2
-0.205
-0.225
-0.255
-0.3
-0.29
-0.235
-0.13
-0.035
0.05
0.12
0.2
0.31
0.435
0.535
0.58
0.475
0.21
-0.085
-0.23
-0.25
-0.215
-0.18
-0.185
-0.16
-0.15
-0.15
-0.18
-0.18
-0.16
-0.165
-0.17
-0.165
-0.185
-0.185
-0.185
-0.17
-0.16
-0.155
-0.175
-0.195
-0.185
-0.185
-0.175
-0.175
-0.195
-0.19
-0.18
-0.165
-0.17
-0.17
-0.17
-0.19
-0.185
-0.18
-0.17
-0.175
-0.19
-0.2
-0.195
-0.185
-0.17
-0.17
-0.185
-0.195
-0.175
-0.2
-0.185
-0.18
-0.185
-0.205
-0.19
-0.18
-0.185
-0.2
-0.215
-0.205
-0.21
-0.2
-0.185
-0.205
-0.2
-0.21
-0.205
-0.185
-0.185
-0.2
-0.215
-0.225
-0.22
-0.2
-0.2
-0.215
-0.225
-0.235
-0.245
-0.24
-0.24
-0.24
-0.245
-0.26
-0.26
-0.265
-0.265
-0.28
-0.285
-0.295
-0.295
-0.3
-0.29
-0.3
-0.315
-0.315
-0.315
-0.315
-0.31
-0.31
-0.325
-0.33
-0.325
-0.315
-0.305
-0.305
-0.29
-0.29
-0.275
-0.27
-0.245
-0.24
-0.25
-0.25
-0.235
-0.22
-0.195
-0.19
-0.19
-0.19
-0.18
-0.16
-0.145
-0.15
-0.16
-0.16
-0.155
-0.145
-0.14
-0.16
-0.15
-0.175
-0.17
-0.16
-0.16
-0.15
-0.155
-0.16
-0.17
-0.155
-0.155
-0.15
-0.165
-0.175
-0.165
-0.165
-0.16
-0.16
-0.18
-0.175
-0.185
-0.165
-0.15
-0.15
-0.17
-0.185
-0.195
-0.19
-0.19
-0.185
-0.19
-0.21
-0.195
-0.19
-0.18
-0.205
-0.215
-0.225
-0.21
-0.205
-0.195
-0.2
-0.195
-0.21
-0.215
-0.205
-0.185
-0.195
-0.195
-0.22
-0.22
-0.21
-0.215
-0.22
-0.22
-0.225
-0.21
-0.2
-0.21
-0.225
-0.23
-0.225
-0.22
-0.23
-0.21
-0.215
-0.215
-0.23
-0.215
-0.22
-0.205
-0.205
-0.21
-0.215
-0.225
-0.215
-0.215
-0.215
-0.225
-0.225
-0.225
-0.205
-0.195
-0.21
-0.21
-0.215
-0.235
-0.23
-0.22
-0.22
-0.23
-0.225
-0.23
-0.215
-0.195
-0.195
-0.19
-0.2
-0.195
-0.18
-0.17
-0.18
-0.175
-0.195
-0.195
-0.17
-0.175
-0.175
-0.18
-0.185
-0.185
-0.175
-0.175
-0.175
-0.19
-0.205
-0.2
-0.205
-0.205
-0.215
-0.215
-0.225
-0.215
-0.21
-0.2
-0.215
-0.225
-0.245
-0.245
-0.25
-0.225
-0.23
-0.235
-0.24
-0.235
-0.235
-0.22
-0.23
-0.24
-0.24
-0.245
-0.225
-0.225
-0.235
-0.25
-0.27
-0.28
-0.29
-0.3
-0.33
-0.36
-0.355
-0.305
-0.205
-0.08
0.015
0.065
0.115
0.19
0.3
0.41
0.495
0.485
0.36
0.105
-0.165
-0.35
-0.45
-0.47
-0.45
-0.395
-0.345
-0.31
-0.295
-0.285
-0.295
-0.295
-0.28
-0.285
-0.285
-0.285
-0.29
-0.275
-0.275
-0.275
-0.27
-0.285
-0.295
-0.29
-0.275
-0.265
-0.265
-0.275
-0.295
-0.29
-0.285
-0.27
-0.265
-0.275
-0.28
-0.28
-0.27
-0.265
-0.27
-0.27
-0.28
-0.27
-0.265
-0.265
-0.265
-0.27
-0.285
-0.285
-0.265
-0.265
-0.255
-0.275
-0.275
-0.28
-0.27
-0.265
-0.275
-0.285
-0.28
-0.28
-0.275
-0.275
-0.275
-0.285
-0.295
-0.295
-0.275
-0.275
-0.285
-0.29
-0.315
-0.315
-0.305
-0.29
-0.31
-0.32
-0.32
-0.335
-0.33
-0.325
-0.345
-0.35
-0.365
-0.37
-0.355
-0.36
-0.37
-0.39
-0.395
-0.4
-0.39
-0.385
-0.39
-0.4
-0.41
-0.42
-0.405
-0.41
-0.41
-0.4
-0.405
-0.39
-0.385
-0.365
-0.355
-0.345
-0.355
-0.33
-0.295
-0.275
-0.27
-0.26
-0.265
-0.265
-0.245
-0.225
-0.21
-0.215
-0.215
-0.205
-0.195
-0.185
-0.185
-0.195
-0.195
-0.195
-0.185
-0.17
-0.185
-0.195
-0.195
-0.195
-0.185
-0.175
-0.175
-0.185
-0.195
-0.195
-0.195
-0.18
-0.185
-0.19
-0.195
-0.195
-0.19
-0.185
-0.185
-0.19
-0.2
-0.215
-0.195
-0.185
-0.185
-0.185
-0.2
-0.205
-0.19
-0.19
-0.2
-0.2
-0.195
-0.22
-0.205
-0.19
-0.2
-0.22
-0.23
-0.21
-0.205
-0.2
-0.195
-0.22
-0.225
-0.225
-0.215
-0.205
-0.205
-0.215
-0.225
-0.22
-0.225
-0.195
-0.215
-0.22
-0.215
-0.225
-0.215
-0.21
-0.21
-0.225
-0.23
-0.22
-0.21
-0.205
-0.2
-0.205
-0.22
-0.23
-0.215
-0.205
-0.2
-0.23
-0.22
-0.215
-0.205
-0.2
-0.205
-0.22
-0.22
-0.225
-0.205
-0.2
-0.2
-0.21
-0.23
-0.215
-0.2
-0.2
-0.205
-0.21
-0.215
-0.22
-0.205
-0.2
-0.195
-0.205
-0.205
-0.205
-0.18
-0.17
-0.19
-0.19
-0.2
-0.185
-0.165
-0.145
-0.145
-0.17
-0.175
-0.17
-0.165
-0.15
-0.16
-0.175
-0.19
-0.19
-0.185
-0.185
-0.175
-0.195
-0.215
-0.205
-0.2
-0.195
-0.205
-0.21
-0.22
-0.215
-0.21
-0.205
-0.2
-0.21
-0.22
-0.22
-0.22
-0.2
-0.205
-0.215
-0.225
-0.22
-0.215
-0.205
-0.22
-0.225
-0.24
-0.26
-0.28
-0.3
-0.345
-0.375
-0.345
-0.26
-0.125
0.025
0.145
0.26
0.375
0.505
0.635
0.705
0.61
0.32
-0.045
-0.25
-0.27
-0.24
-0.24
-0.25
-0.255
-0.245
-0.245
-0.245
-0.255
-0.26
-0.26
-0.27
-0.245
-0.245
-0.25
-0.265
-0.27
-0.27
-0.265
-0.26
-0.26
-0.27
-0.28
-0.28
-0.27
-0.255
-0.265
-0.28
-0.29
-0.275
-0.265
-0.255
-0.26
-0.26
-0.28
-0.28
-0.265
-0.26
-0.255
-0.26
-0.275
-0.27
-0.275
-0.265
-0.265
-0.27
-0.28
-0.285
-0.28
-0.255
-0.27
-0.28
-0.29
-0.29
-0.27
-0.27
-0.285
-0.3
-0.3
-0.3
-0.295
-0.275
-0.295
-0.3
-0.31
-0.31
-0.315
-0.31
-0.31
-0.335
-0.345
-0.355
-0.35
-0.345
-0.36
-0.37
-0.375
-0.385
-0.37
-0.37
-0.385
-0.4
-0.415
-0.405
-0.41
-0.39
-0.405
-0.41
-0.425
-0.42
-0.41
-0.405
-0.4
-0.4
-0.405
-0.385
-0.365
-0.345
-0.335
-0.325
-0.31
-0.295
-0.275
-0.255
-0.25
-0.24
-0.245
-0.23
-0.205
-0.2
-0.2
-0.205
-0.21
-0.22
-0.195
-0.19
-0.2
-0.2
-0.21
-0.2
-0.19
-0.175
-0.2
-0.205
-0.21
-0.2
-0.2
-0.18
-0.19
-0.19
-0.205
-0.205
-0.195
-0.185
-0.19
-0.19
-0.21
-0.21
-0.205
-0.205
-0.2
-0.215
-0.225
-0.21
-0.21
-0.21
-0.215
-0.225
-0.225
-0.23
-0.21
-0.21
-0.23
-0.25
-0.25
-0.245
-0.23
-0.215
-0.23
-0.24
-0.245
-0.245
-0.24
-0.215
-0.225
-0.24
-0.24
-0.245
-0.24
-0.23
-0.235
-0.24
-0.23
-0.25
-0.225
-0.215
-0.23
-0.24
-0.25
-0.265
-0.23
-0.22
-0.235
-0.225
-0.235
-0.235
-0.225
-0.225
-0.215
-0.225
-0.235
-0.23
-0.225
-0.225
-0.225
-0.225
-0.23
-0.23
-0.215
-0.21
-0.225
-0.24
-0.235
-0.24
-0.225
-0.215
-0.22
-0.22
-0.23
-0.23
-0.205
-0.2
-0.205
-0.195
-0.21
-0.205
-0.19
-0.185
-0.2
-0.195
-0.2
-0.19
-0.17
-0.14
-0.165
-0.165
-0.185
-0.18
-0.17
-0.15
-0.165
-0.18
-0.2
-0.21
-0.21
-0.185
-0.19
-0.2
-0.215
-0.22
-0.21
-0.195
-0.205
-0.22
-0.225
-0.23
-0.22
-0.21
-0.21
-0.23
-0.235
-0.23
-0.225
-0.215
-0.22
-0.22
-0.23
-0.24
-0.22
-0.225
-0.235
-0.25
-0.28
-0.305
-0.325
-0.345
-0.375
-0.415
-0.425
-0.385
-0.295
-0.18
-0.065
0.035
0.13
0.24
0.37
0.495
0.61
0.655
0.545
0.23
-0.105
-0.28
-0.285
-0.255
-0.255
-0.26
-0.23
-0.22
-0.245
-0.255
-0.26
-0.25
-0.235
-0.245
-0.245
-0.26
-0.265
-0.265
-0.26
-0.24
-0.245
-0.26
-0.27
-0.27
-0.255
-0.255
-0.25
-0.265
-0.27
-0.27
-0.265
-0.25
-0.245
-0.265
-0.27
-0.26
-0.255
-0.245
-0.25
-0.26
-0.27
-0.26
-0.255
-0.25
-0.255
-0.255
-0.275
-0.27
-0.265
-0.26
-0.26
-0.275
-0.27
-0.26
-0.245
-0.255
-0.265
-0.265
-0.27
-0.265
-0.26
-0.27
-0.265
-0.27
-0.28
-0.285
-0.28
-0.285
-0.29
-0.31
-0.305
-0.3
-0.3
-0.31
-0.325
-0.34
-0.34
-0.325
-0.32
-0.355
-0.36
-0.38
-0.385
-0.375
-0.365
-0.375
-0.385
-0.39
-0.395
-0.385
-0.375
-0.375
-0.375
-0.38
-0.365
-0.345
-0.335
-0.315
-0.31
-0.305
-0.29
-0.27
-0.255
-0.25
-0.245
-0.235
-0.235
-0.225
-0.22
-0.195
-0.215
-0.23
-0.215
-0.205
-0.195
-0.2
-0.195
-0.195
-0.205
-0.195
-0.18
-0.19
-0.205
-0.21
-0.205
-0.18
-0.185
-0.19
-0.205
-0.215
-0.215
-0.215
-0.19
-0.21
-0.2
-0.215
-0.22
-0.225
-0.215
-0.215
-0.23
-0.225
-0.225
-0.21
-0.21
-0.215
-0.23
-0.235
-0.23
-0.22
-0.215
-0.23
-0.235
-0.25
-0.245
-0.24
-0.22
-0.23
-0.23
-0.235
-0.24
-0.235
-0.22
-0.23
-0.24
-0.255
-0.245
-0.235
-0.22
-0.23
-0.24
-0.25
-0.255
-0.24
-0.225
-0.23
-0.235
-0.24
-0.245
-0.235
-0.23
-0.235
-0.24
-0.245
-0.235
-0.235
-0.23
-0.24
-0.235
-0.245
-0.25
-0.23
-0.21
-0.23
-0.235
-0.245
-0.25
-0.245
-0.23
-0.23
-0.235
-0.25
-0.25
-0.24
-0.225
-0.23
-0.235
-0.24
-0.245
-0.24
-0.225
-0.225
-0.23
-0.23
-0.225
-0.205
-0.21
-0.22
-0.205
-0.22
-0.22
-0.21
-0.19
-0.18
-0.18
-0.185
-0.19
-0.19
-0.185
-0.205
-0.2
-0.22
-0.22
-0.22
-0.21
-0.225
-0.22
-0.24
-0.245
-0.235
-0.23
-0.245
-0.245
-0.25
-0.255
-0.23
-0.225
-0.23
-0.245
-0.255
-0.265
-0.255
-0.245
-0.26
-0.25
-0.26
-0.27
-0.24
-0.245
-0.25
-0.25
-0.25
-0.265
-0.255
-0.245
-0.255
-0.265
-0.28
-0.305
-0.32
-0.35
-0.38
-0.39
-0.345
-0.24
-0.11
-0.02
0.04
0.11
0.22
0.35
0.44
0.395
0.155
-0.17
-0.38
-0.41
-0.355
-0.32
-0.305
-0.3
-0.295
-0.295
-0.285
-0.3
-0.31
-0.305
-0.305
-0.295
-0.27
-0.27
-0.285
-0.305
-0.31
-0.3
-0.29
-0.275
-0.285
-0.285
-0.305
-0.29
-0.29
-0.285
-0.285
-0.29
-0.3
-0.295
-0.285
-0.275
-0.29
-0.295
-0.275
-0.285
-0.285
-0.26
-0.27
-0.265
-0.285
-0.29
-0.295
-0.28
-0.29
-0.295
-0.3
-0.31
-0.305
-0.295
-0.3
-0.28
-0.29
-0.305
-0.29
-0.285
-0.305
-0.31
-0.315
-0.305
-0.295
-0.29
-0.295
-0.3
-0.305
-0.325
-0.31
-0.3
-0.31
-0.335
-0.34
-0.35
-0.355
-0.34
-0.35
-0.365
-0.38
-0.4
-0.385
-0.38
-0.39
-0.4
-0.405
-0.405
-0.405
-0.415
-0.415
-0.42
-0.415
-0.425
-0.41
-0.395
-0.385
-0.405
-0.395
-0.395
-0.375
-0.37
-0.375
-0.375
-0.37
-0.36
-0.345
-0.32
-0.305
-0.305
-0.3
-0.285
-0.275
-0.26
-0.245
-0.245
-0.25
-0.255
-0.245
-0.23
-0.235
-0.245
-0.255
-0.255
-0.225
-0.23
-0.235
-0.24
-0.25
-0.245
-0.225
-0.215
-0.22
-0.24
-0.25
-0.255
-0.245
-0.24
-0.235
-0.245
-0.255
-0.25
-0.235
-0.23
-0.25
-0.26
-0.275
-0.28
-0.275
-0.26
-0.27
-0.255
-0.265
-0.255
-0.265
-0.26
-0.265
-0.265
-0.275
-0.27
-0.265
-0.255
-0.255
-0.265
-0.275
-0.29
-0.275
-0.26
-0.27
-0.265
-0.27
-0.265
-0.265
-0.25
-0.265
-0.265
-0.27
-0.27
-0.265
-0.255
-0.26
-0.255
-0.27
-0.27
-0.285
-0.265
-0.26
-0.265
-0.27
-0.265
-0.26
-0.25
-0.265
-0.265
-0.27
-0.265
-0.255
-0.245
-0.255
-0.275
-0.275
-0.275
-0.255
-0.255
-0.26
-0.265
-0.285
-0.28
-0.265
-0.26
-0.255
-0.25
-0.255
-0.25
-0.24
-0.23
-0.235
-0.225
-0.235
-0.24
-0.225
-0.215
-0.235
-0.23
-0.225
-0.215
-0.205
-0.2
-0.21
-0.225
-0.23
-0.225
-0.215
-0.21
-0.235
-0.24
-0.255
-0.245
-0.235
-0.23
-0.235
-0.245
-0.27
-0.26
-0.25
-0.24
-0.24
-0.255
-0.26
-0.265
-0.255
-0.245
-0.245
-0.26
-0.255
-0.26
-0.255
-0.24
-0.24
-0.26
-0.26
-0.25
-0.24
-0.235
-0.24
-0.255
-0.27
-0.285
-0.29
-0.31
-0.33
-0.365
-0.37
-0.35
-0.26
-0.135
-0.02
0.035
0.095
0.185
0.315
0.45
0.515
0.45
0.175
-0.18
-0.385
-0.395
-0.345
-0.31
-0.29
-0.275
-0.265
-0.235
-0.25
-0.265
-0.255
-0.245
-0.24
-0.24
-0.25
-0.26
-0.265
-0.275
-0.255
-0.24
-0.245
-0.26
-0.26
-0.265
-0.25
-0.25
-0.245
-0.25
-0.265
-0.255
-0.25
-0.245
-0.245
-0.255
-0.26
-0.25
-0.24
-0.215
-0.23
-0.25
-0.25
-0.255
-0.24
-0.22
-0.235
-0.235
-0.24
-0.255
-0.245
-0.225
-0.23
-0.235
-0.24
-0.24
-0.24
-0.23
-0.245
-0.255
-0.25
-0.25
-0.235
-0.24
-0.235
-0.255
-0.255
-0.255
-0.25
-0.235
-0.26
-0.255
-0.27
-0.285
-0.285
-0.28
-0.285
-0.285
-0.305
-0.295
-0.285
-0.29
-0.305
-0.32
-0.335
-0.34
-0.315
-0.315
-0.33
-0.345
-0.35
-0.355
-0.365
-0.355
-0.365
-0.37
-0.375
-0.375
-0.37
-0.355
-0.36
-0.34
-0.34
-0.33
-0.315
-0.29
-0.275
-0.265
-0.26
-0.245
-0.225
-0.205
-0.2
-0.19
-0.2
-0.185
-0.175
-0.16
-0.155
-0.165
-0.16
-0.17
-0.15
-0.145
-0.15
-0.145
-0.145
-0.155
-0.15
-0.135
-0.145
-0.145
-0.15
-0.145
-0.14
-0.13
-0.135
-0.14
-0.145
-0.165
-0.155
-0.145
-0.15
-0.16
-0.16
-0.16
-0.145
-0.14
-0.15
-0.165
-0.17
-0.165
-0.165
-0.15
-0.15
-0.165
-0.17
-0.18
-0.165
-0.155
-0.16
-0.165
-0.175
-0.18
-0.165
-0.15
-0.17
-0.17
-0.185
-0.175
-0.175
-0.16
-0.165
-0.17
-0.18
-0.175
-0.17
-0.16
-0.16
-0.17
-0.19
-0.165
-0.16
-0.155
-0.16
-0.155
-0.165
-0.185
-0.175
-0.15
-0.155
-0.165
-0.17
-0.17
-0.165
-0.15
-0.16
-0.17
-0.175
-0.18
-0.155
-0.15
-0.145
-0.16
-0.165
-0.16
-0.16
-0.145
-0.15
-0.15
-0.16
-0.16
-0.15
-0.15
-0.15
-0.155
-0.16
-0.16
-0.15
-0.13
-0.15
-0.155
-0.16
-0.15
-0.125
-0.12
-0.115
-0.125
-0.135
-0.14
-0.13
-0.105
-0.105
-0.1
-0.105
-0.09
-0.08
-0.075
-0.09
-0.09
-0.1
-0.1
-0.095
-0.09
-0.11
-0.125
-0.13
-0.12
-0.12
-0.11
-0.11
-0.12
-0.13
-0.14
-0.145
-0.125
-0.13
-0.15
-0.145
-0.14
-0.14
-0.12
-0.135
-0.145
-0.16
-0.15
-0.135
-0.125
-0.135
-0.145
-0.15
-0.16
-0.145
-0.135
-0.135
-0.125
-0.16
-0.175
-0.195
-0.21
-0.23
-0.27
-0.29
-0.28
-0.195
-0.05
0.085
0.195
0.305
0.42
0.565
0.705
0.8
0.795
0.595
0.235
-0.075
-0.19
-0.185
-0.155
-0.17
-0.165
-0.155
-0.145
-0.155
-0.19
-0.2
-0.195
-0.175
-0.175
-0.18
-0.185
-0.2
-0.195
-0.2
-0.195
-0.19
-0.195
-0.2
-0.2
-0.19
-0.18
-0.185
-0.195
-0.21
-0.21
-0.175
-0.19
-0.185
-0.185
-0.195
-0.2
-0.195
-0.18
-0.19
-0.195
-0.19
-0.195
-0.175
-0.175
-0.185
-0.19
-0.195
-0.19
-0.185
-0.17
-0.17
-0.19
-0.2
-0.2
-0.18
-0.175
-0.195
-0.175
-0.19
-0.19
-0.19
-0.18
-0.19
-0.21
-0.205
-0.2
-0.21
-0.195
-0.205
-0.215
-0.23
-0.215
-0.225
-0.205
-0.215
-0.235
-0.245
-0.245
-0.24
-0.245
-0.235
-0.26
-0.265
-0.27
-0.265
-0.265
-0.27
-0.285
-0.3
-0.295
-0.295
-0.295
-0.305
-0.31
-0.32
-0.325
-0.32
-0.31
-0.32
-0.32
-0.325
-0.31
-0.28
-0.28
-0.28
-0.265
-0.265
-0.25
-0.225
-0.2
-0.195
-0.19
-0.18
-0.17
-0.15
-0.135
-0.115
-0.125
-0.13
-0.12
-0.105
-0.1
-0.1
-0.1
-0.115
-0.12
-0.105
-0.1
-0.105
-0.115
-0.12
-0.11
-0.105
-0.095
-0.1
-0.11
-0.12
-0.12
-0.115
-0.105
-0.105
-0.095
-0.105
-0.12
-0.115
-0.105
-0.11
-0.125
-0.115
-0.13
-0.115
-0.095
-0.1
-0.11
-0.115
-0.115
-0.105
-0.1
-0.11
-0.1
-0.1
-0.105
-0.095
-0.095
-0.095
-0.11
-0.115
-0.11
-0.105
-0.105
-0.115
-0.115
-0.135
-0.125
-0.135
-0.125
-0.13
-0.15
-0.155
-0.165
-0.165
-0.17
-0.175
-0.17
-0.175
-0.17
-0.165
-0.16
-0.16
-0.17
-0.18
-0.17
-0.155
-0.155
-0.16
-0.16
-0.175
-0.17
-0.155
-0.15
-0.16
-0.155
-0.165
-0.16
-0.15
-0.15
-0.145
-0.155
-0.165
-0.155
-0.135
-0.13
-0.145
-0.155
-0.16
-0.16
-0.175
-0.19
-0.235
-0.25
-0.295
-0.315
-0.295
-0.19
-0.085
0.06
0.175
0.265
0.38
0.485
0.59
0.665
0.665
0.5
0.205
-0.075
-0.215
-0.205
-0.18
-0.175
-0.165
-0.145
-0.145
-0.16
-0.165
-0.17
-0.155
-0.155
-0.155
-0.17
-0.175
-0.17
-0.155
-0.155
-0.16
-0.165
-0.18
-0.175
-0.17
-0.16
-0.16
-0.17
-0.18
-0.18
-0.17
-0.165
-0.165
-0.175
-0.18
-0.185
-0.17
-0.16
-0.165
-0.175
-0.175
-0.175
-0.18
-0.17
-0.16
-0.17
-0.18
-0.185
-0.17
-0.16
-0.18
-0.18
-0.185
-0.185
-0.165
-0.155
-0.17
-0.175
-0.195
-0.195
-0.19
-0.175
-0.175
-0.19
-0.19
-0.19
-0.185
-0.19
-0.215
-0.22
-0.215
-0.225
-0.215
-0.2
-0.23
-0.225
-0.245
-0.24
-0.245
-0.22
-0.245
-0.26
-0.28
-0.28
-0.285
-0.27
-0.285
-0.295
-0.305
-0.305
-0.315
-0.305
-0.31
-0.33
-0.325
-0.33
-0.315
-0.31
-0.315
-0.31
-0.32
-0.305
-0.29
-0.275
-0.27
-0.265
-0.265
-0.255
-0.245
-0.225
-0.215
-0.215
-0.215
-0.21
-0.205
-0.185
-0.18
-0.19
-0.19
-0.17
-0.155
-0.14
-0.145
-0.165
-0.16
-0.16
-0.15
-0.145
-0.14
-0.15
-0.15
-0.17
-0.155
-0.145
-0.13
-0.14
-0.15
-0.145
-0.15
-0.135
-0.14
-0.155
-0.15
-0.165
-0.145
-0.145
-0.155
-0.16
-0.16
-0.175
-0.155
-0.155
-0.15
-0.16
-0.165
-0.165
-0.175
-0.165
-0.165
-0.165
-0.17
-0.165
-0.16
-0.16
-0.165
-0.17
-0.195
-0.185
-0.18
-0.17
-0.165
-0.185
-0.18
-0.185
-0.17
-0.175
-0.175
-0.175
-0.18
-0.175
-0.155
-0.16
-0.17
-0.18
-0.2
-0.195
-0.165
-0.16
-0.16
-0.165
-0.185
-0.19
-0.18
-0.17
-0.17
-0.17
-0.18
-0.18
-0.17
-0.18
-0.18
-0.2
-0.195
-0.195
-0.155
-0.145
-0.165
-0.18
-0.185
-0.18
-0.17
-0.16
-0.16
-0.17
-0.18
-0.19
-0.18
-0.165
-0.17
-0.185
-0.195
-0.185
-0.185
-0.185
-0.185
-0.19
-0.18
-0.19
-0.19
-0.18
-0.19
-0.19
-0.195
-0.195
-0.185
-0.175
-0.195
-0.18
-0.18
-0.185
-0.19
-0.175
-0.19
-0.19
-0.21
-0.205
-0.185
-0.18
-0.18
-0.19
-0.215
-0.22
-0.205
-0.195
-0.19
-0.195
-0.215
-0.235
-0.21
-0.2
-0.21
-0.205
-0.215
-0.215
-0.205
-0.2
-0.19
-0.22
-0.225
-0.225
-0.205
-0.2
-0.205
-0.205
-0.21
-0.21
-0.195
-0.195
-0.195
-0.2
-0.225
-0.225
-0.205
-0.19
-0.195
-0.19
-0.2
-0.185
-0.18
-0.165
-0.17
-0.18
-0.175
-0.17
-0.165
-0.15
-0.155
-0.165
-0.17
-0.165
-0.165
-0.155
-0.17
-0.18
-0.17
-0.165
-0.16
-0.16
-0.18
-0.19
-0.205
-0.19
-0.19
-0.17
-0.185
-0.19
-0.195
-0.225
-0.215
-0.2
-0.205
-0.205
-0.205
-0.22
-0.21
-0.21
-0.21
-0.215
-0.225
-0.235
-0.23
-0.205
-0.215
-0.225
-0.225
-0.22
-0.22
-0.215
-0.225
-0.225
-0.255
-0.275
-0.29
-0.29
-0.315
-0.33
-0.305
-0.245
-0.115
-0.025
0.03
0.08
0.155
0.265
0.385
0.5
0.545
0.45
0.215
-0.09
-0.325
-0.39
-0.385
-0.365
-0.335
-0.295
-0.285
-0.27
-0.265
-0.27
-0.275
-0.285
-0.265
-0.25
-0.26
-0.26
-0.265
-0.27
-0.265
-0.245
-0.26
-0.255
-0.28
-0.26
-0.25
-0.25
-0.255
-0.255
-0.26
-0.26
-0.255
-0.225
-0.24
-0.245
-0.265
-0.275
-0.25
-0.245
-0.23
-0.24
-0.255
-0.25
-0.25
-0.245
-0.235
-0.24
-0.25
-0.25
-0.245
-0.22
-0.245
-0.245
-0.24
-0.255
-0.245
-0.225
-0.24
-0.25
-0.26
-0.265
-0.255
-0.24
-0.25
-0.25
-0.265
-0.26
-0.26
-0.265
-0.275
-0.27
-0.27
-0.27
-0.27
-0.245
-0.265
-0.265
-0.27
-0.285
-0.26
-0.245
-0.255
-0.265
-0.285
-0.295
-0.3
-0.295
-0.285
-0.32
-0.325
-0.335
-0.335
-0.33
-0.35
-0.345
-0.365
-0.38
-0.375
-0.375
-0.385
-0.385
-0.4
-0.4
-0.395
-0.39
-0.39
-0.4
-0.405
-0.41
-0.38
-0.355
-0.35
-0.34
-0.345
-0.335
-0.31
-0.285
-0.28
-0.27
-0.255
-0.245
-0.235
-0.21
-0.215
-0.22
-0.22
-0.215
-0.19
-0.18
-0.18
-0.185
-0.195
-0.195
-0.19
-0.17
-0.17
-0.185
-0.185
-0.185
-0.18
-0.17
-0.19
-0.18
-0.195
-0.19
-0.17
-0.17
-0.175
-0.19
-0.195
-0.19
-0.185
-0.185
-0.18
-0.185
-0.19
-0.205
-0.195
-0.185
-0.185
-0.185
-0.205
-0.205
-0.18
-0.195
-0.195
-0.205
-0.21
-0.225
-0.21
-0.2
-0.2
-0.205
-0.21
-0.225
-0.21
-0.2
-0.2
-0.205
-0.21
-0.2
-0.195
-0.185
-0.205
-0.21
-0.22
-0.215
-0.205
-0.2
-0.215
-0.21
-0.225
-0.22
-0.215
-0.2
-0.21
-0.205
-0.215
-0.215
-0.215
-0.2
-0.2
-0.21
-0.22
-0.21
-0.195
-0.2
-0.19
-0.21
-0.22
-0.215
-0.2
-0.185
-0.195
-0.2
-0.2
-0.205
-0.195
-0.185
-0.19
-0.195
-0.2
-0.2
-0.2
-0.19
-0.2
-0.19
-0.2
-0.195
-0.18
-0.16
-0.18
-0.18
-0.185
-0.18
-0.16
-0.145
-0.155
-0.17
-0.17
-0.155
-0.145
-0.13
-0.135
-0.14
-0.135
-0.14
-0.14
-0.125
-0.13
-0.15
-0.165
-0.165
-0.165
-0.155
-0.15
-0.165
-0.18
-0.195
-0.175
-0.17
-0.175
-0.185
-0.195
-0.19
-0.175
-0.185
-0.19
-0.205
-0.215
-0.215
-0.195
-0.18
-0.19
-0.2
-0.2
-0.215
-0.2
-0.18
-0.195
-0.2
-0.205
-0.21
-0.2
-0.205
-0.235
-0.26
-0.285
-0.3
-0.325
-0.32
-0.29
-0.19
-0.055
0.05
0.15
0.245
0.345
0.445
0.53
0.595
0.52
0.275
-0.085
-0.3
-0.335
-0.285
-0.25
-0.245
-0.235
-0.215
-0.23
-0.23
-0.24
-0.235
-0.235
-0.245
-0.255
-0.25
-0.24
-0.225
-0.23
-0.25
-0.24
-0.255
-0.23
-0.225
-0.225
-0.225
-0.23
-0.24
-0.225
-0.215
-0.215
-0.225
-0.235
-0.24
-0.225
-0.205
-0.21
-0.225
-0.23
-0.235
-0.225
-0.215
-0.22
-0.23
-0.235
-0.23
-0.215
-0.215
-0.215
-0.225
-0.235
-0.235
-0.23
-0.215
-0.225
-0.225
-0.235
-0.245
-0.24
-0.225
-0.21
-0.23
-0.23
-0.245
-0.22
-0.225
-0.235
-0.245
-0.25
-0.25
-0.24
-0.24
-0.245
-0.25
-0.27
-0.27
-0.265
-0.26
-0.28
-0.295
-0.295
-0.315
-0.31
-0.305
-0.31
-0.325
-0.33
-0.35
-0.34
-0.335
-0.35
-0.35
-0.37
-0.365
-0.355
-0.335
-0.355
-0.365
-0.37
-0.36
-0.335
-0.315
-0.315
-0.305
-0.285
-0.285
-0.27
-0.24
-0.23
-0.22
-0.22
-0.2
-0.18
-0.175
-0.18
-0.185
-0.19
-0.185
-0.18
-0.175
-0.17
-0.165
-0.175
-0.17
-0.165
-0.155
-0.16
-0.16
-0.165
-0.165
-0.16
-0.145
-0.15
-0.16
-0.165
-0.175
-0.15
-0.14
-0.155
-0.16
-0.175
-0.175
-0.17
-0.16
-0.155
-0.165
-0.175
-0.18
-0.17
-0.165
-0.17
-0.185
-0.185
-0.18
-0.175
-0.17
-0.18
-0.185
-0.2
-0.195
-0.185
-0.175
-0.18
-0.185
-0.205
-0.21
-0.19
-0.185
-0.19
-0.2
-0.205
-0.215
-0.2
-0.18
-0.185
-0.2
-0.205
-0.2
-0.205
-0.19
-0.19
-0.18
-0.205
-0.2
-0.195
-0.18
-0.185
-0.185
-0.2
-0.2
-0.18
-0.18
-0.185
-0.185
-0.2
-0.195
-0.175
-0.175
-0.185
-0.19
-0.195
-0.205
-0.185
-0.16
-0.17
-0.19
-0.19
-0.19
-0.18
-0.17
-0.16
-0.17
-0.185
-0.195
-0.18
-0.175
-0.17
-0.17
-0.195
-0.2
-0.18
-0.17
-0.175
-0.18
-0.18
-0.17
-0.155
-0.135
-0.145
-0.16
-0.16
-0.16
-0.14
-0.12
-0.12
-0.13
-0.13
-0.125
-0.125
-0.115
-0.11
-0.13
-0.145
-0.155
-0.14
-0.14
-0.145
-0.15
-0.16
-0.165
-0.16
-0.15
-0.165
-0.185
-0.18
-0.185
-0.17
-0.155
-0.175
-0.19
-0.195
-0.195
-0.18
-0.175
-0.18
-0.18
-0.19
-0.17
-0.18
-0.175
-0.18
-0.185
-0.2
-0.195
-0.2
-0.225
-0.255
-0.295
-0.33
-0.34
-0.305
-0.195
-0.065
0.07
0.18
0.285
0.415
0.555
0.67
0.7
0.555
0.21
-0.125
-0.265
-0.24
-0.215
-0.215
-0.23
-0.22
-0.21
-0.235
-0.235
-0.235
-0.23
-0.225
-0.21
-0.215
-0.225
-0.24
-0.25
-0.23
-0.23
-0.225
-0.23
-0.24
-0.235
-0.23
-0.225
-0.23
-0.245
-0.235
-0.235
-0.22
-0.22
-0.225
-0.23
-0.245
-0.225
-0.22
-0.21
-0.21
-0.22
-0.24
-0.235
-0.225
-0.21
-0.2
-0.225
-0.225
-0.225
-0.225
-0.215
-0.215
-0.235
-0.24
-0.24
-0.235
-0.22
-0.225
-0.235
-0.245
-0.245
-0.23
-0.225
-0.22
-0.245
-0.25
-0.255
-0.255
-0.24
-0.25
-0.26
-0.275
-0.285
-0.275
-0.28
-0.29
-0.3
-0.305
-0.315
-0.31
-0.315
-0.325
-0.335
-0.35
-0.345
-0.34
-0.335
-0.35
-0.36
-0.37
-0.365
-0.36
-0.345
-0.34
-0.35
-0.355
-0.345
-0.325
-0.305
-0.3
-0.285
-0.285
-0.28
-0.265
-0.23
-0.235
-0.24
-0.245
-0.225
-0.215
-0.195
-0.18
-0.18
-0.19
-0.18
-0.165
-0.14
-0.155
-0.165
-0.16
-0.155
-0.145
-0.135
-0.15
-0.165
-0.17
-0.15
-0.145
-0.145
-0.145
-0.16
-0.17
-0.17
-0.155
-0.135
-0.145
-0.155
-0.165
-0.18
-0.165
-0.15
-0.16
-0.15
-0.17
-0.175
-0.165
-0.155
-0.165
-0.175
-0.18
-0.175
-0.165
-0.16
-0.165
-0.185
-0.195
-0.185
-0.185
-0.17
-0.175
-0.17
-0.185
-0.18
-0.185
-0.18
-0.175
-0.185
-0.19
-0.185
-0.17
-0.16
-0.185
-0.185
-0.19
-0.2
-0.195
-0.165
-0.175
-0.18
-0.19
-0.195
-0.19
-0.16
-0.175
-0.165
-0.185
-0.18
-0.18
-0.155
-0.17
-0.18
-0.18
-0.185
-0.165
-0.15
-0.16
-0.165
-0.18
-0.18
-0.165
-0.15
-0.155
-0.155
-0.17
-0.175
-0.165
-0.155
-0.15
-0.155
-0.165
-0.165
-0.16
-0.16
-0.165
-0.17
-0.175
-0.16
-0.135
-0.14
-0.145
-0.14
-0.145
-0.135
-0.125
-0.115
-0.115
-0.125
-0.13
-0.105
-0.095
-0.095
-0.095
-0.095
-0.095
-0.115
-0.12
-0.12
-0.13
-0.135
-0.125
-0.14
-0.135
-0.12
-0.15
-0.15
-0.155
-0.16
-0.145
-0.14
-0.145
-0.145
-0.16
-0.165
-0.155
-0.145
-0.155
-0.155
-0.17
-0.165
-0.16
-0.155
-0.16
-0.17
-0.17
-0.165
-0.165
-0.145
-0.17
-0.19
-0.225
-0.25
-0.27
-0.28
-0.305
-0.29
-0.2
-0.075
0.04
0.135
0.215
0.32
0.435
0.54
0.58
0.465
0.145
-0.155
-0.285
-0.25
-0.2
-0.18
-0.19
-0.19
-0.185
-0.195
-0.185
-0.175
-0.19
-0.195
-0.205
-0.205
-0.185
-0.165
-0.185
-0.19
-0.21
-0.21
-0.2
-0.19
-0.185
-0.195
-0.21
-0.21
-0.19
-0.18
-0.19
-0.195
-0.215
-0.215
-0.195
-0.185
-0.18
-0.185
-0.2
-0.205
-0.19
-0.18
-0.185
-0.195
-0.195
-0.195
-0.19
-0.185
-0.195
-0.195
-0.205
-0.2
-0.19
-0.185
-0.195
-0.21
-0.215
-0.215
-0.205
-0.19
-0.19
-0.205
-0.22
-0.215
-0.205
-0.21
-0.22
-0.23
-0.24
-0.255
-0.24
-0.225
-0.23
-0.25
-0.25
-0.26
-0.26
-0.255
-0.26
-0.285
-0.295
-0.3
-0.285
-0.28
-0.29
-0.305
-0.315
-0.32
-0.31
-0.305
-0.31
-0.32
-0.325
-0.335
-0.32
-0.3
-0.3
-0.3
-0.285
-0.28
-0.26
-0.24
-0.235
-0.225
-0.23
-0.225
-0.19
-0.18
-0.185
-0.18
-0.195
-0.18
-0.17
-0.16
-0.17
-0.17
-0.18
-0.18
-0.17
-0.155
-0.155
-0.16
-0.18
-0.175
-0.165
-0.16
-0.17
-0.175
-0.19
-0.19
-0.175
-0.165
-0.175
-0.18
-0.185
-0.185
-0.185
-0.165
-0.185
-0.185
-0.205
-0.21
-0.195
-0.17
-0.18
-0.185
-0.19
-0.2
-0.2
-0.195
-0.2
-0.205
-0.21
-0.215
-0.205
-0.205
-0.22
-0.215
-0.225
-0.215
-0.21
-0.19
-0.205
-0.215
-0.22
-0.225
-0.21
-0.2
-0.205
-0.215
-0.22
-0.225
-0.215
-0.205
-0.195
-0.215
-0.23
-0.235
-0.22
-0.205
-0.22
-0.23
-0.24
-0.235
-0.215
-0.21
-0.205
-0.205
-0.21
-0.215
-0.22
-0.205
-0.22
-0.23
-0.225
-0.225
-0.195
-0.195
-0.22
-0.23
-0.25
-0.24
-0.225
-0.21
-0.21
-0.23
-0.235
-0.24
-0.21
-0.195
-0.195
-0.19
-0.2
-0.195
-0.18
-0.18
-0.19
-0.19
-0.18
-0.185
-0.165
-0.165
-0.175
-0.185
-0.2
-0.195
-0.185
-0.18
-0.195
-0.195
-0.215
-0.2
-0.21
-0.195
-0.225
-0.235
-0.245
-0.245
-0.22
-0.23
-0.22
-0.225
-0.24
-0.225
-0.21
-0.22
-0.23
-0.23
-0.24
-0.245
-0.245
-0.24
-0.235
-0.24
-0.255
-0.255
-0.25
-0.23
-0.24
-0.25
-0.265
-0.29
-0.31
-0.305
-0.335
-0.355
-0.335
-0.27
-0.16
-0.05
0.01
0.065
0.135
0.24
0.355
0.395
0.255
-0.015
-0.295
-0.405
-0.39
-0.34
-0.305
-0.31
-0.295
-0.295
-0.28
-0.27
-0.265
-0.285
-0.29
-0.29
-0.29
-0.285
-0.29
-0.29
-0.285
-0.285
-0.285
-0.265
-0.265
-0.275
-0.285
-0.28
-0.27
-0.27
-0.275
-0.27
-0.285
-0.3
-0.28
-0.275
-0.285
-0.285
-0.295
-0.29
-0.285
-0.275
-0.265
-0.285
-0.3
-0.305
-0.285
-0.27
-0.28
-0.275
-0.29
-0.28
-0.29
-0.28
-0.28
-0.285
-0.285
-0.285
-0.295
-0.275
-0.28
-0.29
-0.295
-0.295
-0.285
-0.275
-0.295
-0.305
-0.305
-0.32
-0.305
-0.295
-0.3
-0.3
-0.32
-0.32
-0.31
-0.305
-0.315
-0.33
-0.345
-0.355
-0.34
-0.335
-0.35
-0.37
-0.38
-0.38
-0.375
-0.385
-0.405
-0.405
-0.42
-0.43
-0.415
-0.41
-0.415
-0.425
-0.425
-0.425
-0.405
-0.385
-0.39
-0.385
-0.385
-0.38
-0.35
-0.32
-0.315
-0.315
-0.305
-0.305
-0.27
-0.25
-0.235
-0.235
-0.245
-0.24
-0.235
-0.215
-0.22
-0.22
-0.225
-0.22
-0.215
-0.205
-0.215
-0.215
-0.225
-0.225
-0.215
-0.19
-0.195
-0.21
-0.205
-0.205
-0.2
-0.205
-0.205
-0.205
-0.215
-0.21
-0.21
-0.2
-0.2
-0.205
-0.22
-0.21
-0.2
-0.2
-0.195
-0.215
-0.215
-0.22
-0.21
-0.21
-0.21
-0.215
-0.225
-0.23
-0.215
-0.215
-0.215
-0.22
-0.23
-0.22
-0.205
-0.2
-0.22
-0.225
-0.24
-0.23
-0.23
-0.215
-0.225
-0.22
-0.235
-0.225
-0.225
-0.21
-0.225
-0.225
-0.225
-0.23
-0.22
-0.21
-0.22
-0.215
-0.23
-0.235
-0.215
-0.21
-0.215
-0.225
-0.225
-0.235
-0.23
-0.215
-0.225
-0.22
-0.23
-0.225
-0.22
-0.21
-0.215
-0.22
-0.22
-0.225
-0.21
-0.205
-0.215
-0.225
-0.23
-0.24
-0.225
-0.205
-0.215
-0.215
-0.22
-0.23
-0.225
-0.215
-0.225
-0.22
-0.22
-0.225
-0.195
-0.195
-0.205
-0.2
-0.2
-0.195
-0.19
-0.17
-0.17
-0.18
-0.18
-0.185
-0.17
-0.165
-0.18
-0.175
-0.185
-0.175
-0.17
-0.15
-0.15
-0.155
-0.18
-0.18
-0.17
-0.175
-0.18
-0.19
-0.195
-0.2
-0.19
-0.185
-0.2
-0.195
-0.215
-0.21
-0.2
-0.195
-0.205
-0.22
-0.215
-0.225
-0.225
-0.21
-0.205
-0.21
-0.225
-0.23
-0.215
-0.2
-0.215
-0.22
-0.225
-0.21
-0.21
-0.2
-0.21
-0.215
-0.225
-0.235
-0.24
-0.255
-0.29
-0.31
-0.335
-0.36
-0.35
-0.285
-0.175
-0.05
0.075
0.19
0.315
0.43
0.545
0.655
0.655
0.505
0.21
-0.09
-0.275
-0.29
-0.265
-0.25
-0.255
-0.23
-0.23
-0.25
-0.255
-0.255
-0.25
-0.235
-0.25
-0.25
-0.265
-0.255
-0.25
-0.24
-0.245
-0.255
-0.255
-0.265
-0.24
-0.24
-0.255
-0.255
-0.265
-0.26
-0.25
-0.255
-0.255
-0.255
-0.255
-0.25
-0.245
-0.225
-0.23
-0.245
-0.255
-0.26
-0.245
-0.245
-0.245
-0.24
-0.25
-0.245
-0.245
-0.24
-0.24
-0.25
-0.265
-0.255
-0.24
-0.24
-0.24
-0.255
-0.26
-0.26
-0.255
-0.255
-0.25
-0.26
-0.275
-0.28
-0.28
-0.27
-0.265
-0.285
-0.29
-0.28
-0.28
-0.275
-0.295
-0.305
-0.31
-0.31
-0.32
-0.305
-0.32
-0.345
-0.35
-0.355
-0.355
-0.35
-0.35
-0.36
-0.38
-0.385
-0.38
-0.38
-0.375
-0.385
-0.395
-0.38
-0.39
-0.38
-0.385
-0.38
-0.375
-0.37
-0.335
-0.315
-0.31
-0.3
-0.31
-0.285
-0.26
-0.225
-0.225
-0.22
-0.23
-0.215
-0.205
-0.195
-0.185
-0.195
-0.19
-0.18
-0.17
-0.15
-0.16
-0.175
-0.185
-0.175
-0.17
-0.16
-0.165
-0.165
-0.18
-0.175
-0.17
-0.165
-0.17
-0.18
-0.185
-0.19
-0.17
-0.155
-0.16
-0.165
-0.175
-0.18
-0.17
-0.165
-0.165
-0.175
-0.185
-0.19
-0.19
-0.175
-0.19
-0.18
-0.195
-0.195
-0.18
-0.18
-0.19
-0.205
-0.215
-0.215
-0.21
-0.19
-0.185
-0.2
-0.205
-0.225
-0.205
-0.2
-0.205
-0.205
-0.215
-0.215
-0.2
-0.2
-0.21
-0.21
-0.23
-0.215
-0.22
-0.205
-0.205
-0.22
-0.235
-0.225
-0.22
-0.21
-0.215
-0.22
-0.23
-0.22
-0.22
-0.215
-0.21
-0.235
-0.225
-0.22
-0.22
-0.2
-0.22
-0.215
-0.235
-0.23
-0.225
-0.21
-0.215
-0.22
-0.225
-0.215
-0.21
-0.2
-0.21
-0.22
-0.225
-0.225
-0.225
-0.21
-0.205
-0.21
-0.23
-0.225
-0.215
-0.21
-0.21
-0.225
-0.225
-0.225
-0.205
-0.2
-0.21
-0.22
-0.21
-0.215
-0.19
-0.19
-0.185
-0.185
-0.185
-0.2
-0.185
-0.17
-0.17
-0.155
-0.16
-0.16
-0.175
-0.165
-0.16
-0.16
-0.165
-0.17
-0.165
-0.16
-0.175
-0.195
-0.2
-0.205
-0.195
-0.195
-0.205
-0.2
-0.22
-0.225
-0.22
-0.21
-0.215
-0.22
-0.23
-0.24
-0.215
-0.215
-0.225
-0.235
-0.24
-0.25
-0.23
-0.205
-0.225
-0.23
-0.24
-0.25
-0.23
-0.215
-0.23
-0.255
-0.28
-0.305
-0.315
-0.325
-0.33
-0.35
-0.375
-0.415
-0.415
-0.375
-0.32
-0.235
-0.125
0
0.115
0.205
0.315
0.42
0.525
0.61
0.615
0.47
0.135
-0.165
-0.325
-0.305
-0.27
-0.26
-0.26
-0.25
-0.27
-0.275
-0.26
-0.26
-0.275
-0.27
-0.27
-0.27
-0.265
-0.26
-0.27
-0.27
-0.28
-0.285
-0.265
-0.255
-0.26
-0.27
-0.275
-0.285
-0.27
-0.265
-0.265
-0.26
-0.275
-0.27
-0.265
-0.255
-0.26
-0.255
-0.275
-0.265
-0.26
-0.255
-0.255
-0.26
-0.265
-0.28
-0.26
-0.24
-0.25
-0.265
-0.27
-0.28
-0.265
-0.25
-0.255
-0.26
-0.27
-0.28
-0.275
-0.26
-0.27
-0.285
-0.28
-0.28
-0.275
-0.28
-0.275
-0.27
-0.295
-0.305
-0.295
-0.28
-0.3
-0.31
-0.31
-0.315
-0.315
-0.31
-0.315
-0.33
-0.35
-0.35
-0.355
-0.335
-0.345
-0.355
-0.37
-0.375
-0.385
-0.38
-0.39
-0.39
-0.405
-0.41
-0.395
-0.395
-0.395
-0.4
-0.41
-0.405
-0.385
-0.375
-0.365
-0.365
-0.365
-0.355
-0.325
-0.295
-0.295
-0.265
-0.28
-0.275
-0.245
-0.23
-0.215
-0.21
-0.225
-0.215
-0.21
-0.195
-0.19
-0.215
-0.195
-0.21
-0.18
-0.18
-0.19
-0.195
-0.2
-0.2
-0.19
-0.17
-0.18
-0.195
-0.195
-0.21
-0.2
-0.195
-0.185
-0.19
-0.215
-0.21
-0.21
-0.2
-0.205
-0.215
-0.215
-0.225
-0.215
-0.195
-0.205
-0.22
-0.24
-0.24
-0.22
-0.21
-0.215
-0.215
-0.22
-0.235
-0.225
-0.22
-0.225
-0.23
-0.235
-0.245
-0.225
-0.22
-0.23
-0.245
-0.26
-0.26
-0.25
-0.23
-0.24
-0.245
-0.25
-0.25
-0.24
-0.235
-0.245
-0.24
-0.255
-0.255
-0.25
-0.25
-0.25
-0.26
-0.26
-0.25
-0.245
-0.23
-0.235
-0.24
-0.24
-0.25
-0.24
-0.24
-0.26
-0.255
-0.27
-0.27
-0.255
-0.255
-0.24
-0.245
-0.24
-0.24
-0.245
-0.235
-0.235
-0.245
-0.27
-0.26
-0.25
-0.25
-0.255
-0.25
-0.27
-0.27
-0.25
-0.23
-0.235
-0.24
-0.235
-0.235
-0.23
-0.225
-0.215
-0.235
-0.225
-0.22
-0.205
-0.205
-0.205
-0.205
-0.21
-0.225
-0.21
-0.195
-0.2
-0.215
-0.235
-0.23
-0.225
-0.225
-0.245
-0.25
-0.26
-0.265
-0.23
-0.235
-0.24
-0.25
-0.28
-0.27
-0.265
-0.255
-0.265
-0.275
-0.28
-0.29
-0.275
-0.265
-0.27
-0.27
-0.28
-0.28
-0.27
-0.265
-0.28
-0.285
-0.295
-0.295
-0.28
-0.265
-0.28
-0.3
-0.325
-0.355
-0.36
-0.355
-0.385
-0.4
-0.355
-0.27
-0.17
-0.075
-0.01
0.05
0.135
0.255
0.36
0.39
0.275
0.04
-0.225
-0.4
-0.41
-0.36
-0.345
-0.34
-0.345
-0.345
-0.33
-0.305
-0.315
-0.315
-0.325
-0.335
-0.33
-0.31
-0.315
-0.32
-0.32
-0.32
-0.32
-0.31
-0.325
-0.33
-0.345
-0.34
-0.32
-0.31
-0.31
-0.32
-0.325
-0.325
-0.315
-0.31
-0.31
-0.315
-0.33
-0.32
-0.315
-0.29
-0.305
-0.305
-0.32
-0.32
-0.325
-0.32
-0.315
-0.32
-0.325
-0.33
-0.315
-0.31
-0.315
-0.33
-0.34
-0.335
-0.315
-0.305
-0.32
-0.325
-0.32
-0.325
-0.33
-0.32
-0.31
-0.325
-0.325
-0.33
-0.325
-0.33
-0.33
-0.335
-0.335
-0.345
-0.335
-0.34
-0.345
-0.35
-0.36
-0.38
-0.365
-0.36
-0.37
-0.38
-0.405
-0.425
-0.42
-0.405
-0.41
-0.425
-0.44
-0.445
-0.44
-0.43
-0.43
-0.44
-0.45
-0.465
-0.44
-0.435
-0.445
-0.465
-0.45
-0.445
-0.42
-0.4
-0.385
-0.38
-0.38
-0.375
-0.365
-0.345
-0.34
-0.34
-0.325
-0.305
-0.28
-0.275
-0.29
-0.305
-0.31
-0.305
-0.29
-0.28
-0.28
-0.27
-0.29
-0.285
-0.29
-0.275
-0.29
-0.295
-0.29
-0.3
-0.28
-0.27
-0.28
-0.285
-0.3
-0.29
-0.285
-0.275
-0.285
-0.3
-0.305
-0.31
-0.295
-0.295
-0.29
-0.295
-0.305
-0.31
-0.305
-0.295
-0.295
-0.3
-0.3
-0.31
-0.32
-0.3
-0.325
-0.325
-0.325
-0.335
-0.33
-0.31
-0.32
-0.325
-0.335
-0.34
-0.325
-0.315
-0.33
-0.33
-0.335
-0.34
-0.335
-0.315
-0.33
-0.345
-0.34
-0.34
-0.33
-0.325
-0.33
-0.34
-0.35
-0.355
-0.335
-0.32
-0.325
-0.33
-0.33
-0.355
-0.34
-0.32
-0.335
-0.335
-0.33
-0.35
-0.335
-0.335
-0.34
-0.34
-0.35
-0.345
-0.325
-0.32
-0.325
-0.345
-0.35
-0.35
-0.345
-0.33
-0.315
-0.33
-0.34
-0.345
-0.34
-0.32
-0.33
-0.34
-0.35
-0.335
-0.325
-0.31
-0.305
-0.32
-0.315
-0.32
-0.31
-0.29
-0.295
-0.305
-0.305
-0.31
-0.295
-0.28
-0.28
-0.285
-0.29
-0.295
-0.29
-0.285
-0.295
-0.3
-0.315
-0.315
-0.305
-0.295
-0.305
-0.31
-0.345
-0.335
-0.34
-0.335
-0.33
-0.33
-0.345
-0.345
-0.34
-0.335
-0.33
-0.335
-0.335
-0.33
-0.325
-0.31
-0.325
-0.325
-0.33
-0.335
-0.335
-0.315
-0.32
-0.33
-0.325
-0.335
-0.325
-0.33
-0.35
-0.375
-0.395
-0.425
-0.425
-0.43
-0.425
-0.365
-0.27
-0.165
-0.065
0.015
0.08
0.18
0.295
0.39
0.405
0.315
0.025
-0.26
-0.44
-0.465
-0.415
-0.375
-0.36
-0.35
-0.35
-0.35
-0.335
-0.325
-0.325
-0.34
-0.33
-0.335
-0.325
-0.325
-0.335
-0.325
-0.35
-0.34
-0.34
-0.31
-0.32
-0.325
-0.345
-0.34
-0.33
-0.315
-0.31
-0.32
-0.335
-0.335
-0.325
-0.315
-0.325
-0.33
-0.325
-0.33
-0.315
-0.32
-0.31
-0.32
-0.335
-0.33
-0.315
-0.315
-0.315
-0.32
-0.33
-0.33
-0.315
-0.31
-0.305
-0.32
-0.335
-0.335
-0.345
-0.325
-0.33
-0.33
-0.335
-0.335
-0.33
-0.325
-0.33
-0.335
-0.355
-0.355
-0.35
-0.33
-0.34
-0.36
-0.365
-0.365
-0.37
-0.35
-0.355
-0.37
-0.38
-0.39
-0.385
-0.38
-0.39
-0.395
-0.42
-0.43
-0.42
-0.41
-0.425
-0.43
-0.45
-0.46
-0.445
-0.455
-0.45
-0.45
-0.47
-0.465
-0.46
-0.44
-0.445
-0.435
-0.42
-0.4
-0.38
-0.365
-0.365
-0.355
-0.34
-0.345
-0.32
-0.3
-0.29
-0.28
-0.295
-0.285
-0.27
-0.26
-0.255
-0.25
-0.25
-0.255
-0.245
-0.245
-0.235
-0.245
-0.24
-0.25
-0.24
-0.23
-0.235
-0.24
-0.26
-0.25
-0.24
-0.23
-0.235
-0.235
-0.265
-0.265
-0.255
-0.245
-0.245
-0.25
-0.27
-0.27
-0.255
-0.25
-0.255
-0.255
-0.26
-0.255
-0.255
-0.25
-0.255
-0.27
-0.275
-0.28
-0.25
-0.25
-0.255
-0.27
-0.275
-0.275
-0.27
-0.26
-0.26
-0.265
-0.28
-0.28
-0.265
-0.255
-0.26
-0.28
-0.275
-0.28
-0.265
-0.255
-0.27
-0.265
-0.285
-0.285
-0.27
-0.26
-0.265
-0.26
-0.28
-0.27
-0.275
-0.265
-0.255
-0.275
-0.28
-0.275
-0.27
-0.26
-0.265
-0.26
-0.27
-0.28
-0.26
-0.255
-0.26
-0.27
-0.27
-0.275
-0.265
-0.25
-0.25
-0.26
-0.265
-0.275
-0.265
-0.255
-0.25
-0.265
-0.26
-0.265
-0.25
-0.235
-0.26
-0.26
-0.25
-0.25
-0.24
-0.22
-0.215
-0.23
-0.24
-0.225
-0.22
-0.195
-0.2
-0.21
-0.2
-0.215
-0.19
-0.195
-0.195
-0.19
-0.21
-0.21
-0.2
-0.21
-0.225
-0.22
-0.23
-0.235
-0.225
-0.22
-0.235
-0.24
-0.23
-0.25
-0.255
-0.245
-0.24
-0.245
-0.25
-0.255
-0.24
-0.235
-0.24
-0.245
-0.255
-0.26
-0.255
-0.23
-0.24
-0.245
-0.255
-0.265
-0.265
-0.25
-0.245
-0.25
-0.27
-0.3
-0.32
-0.33
-0.355
-0.385
-0.37
-0.32
-0.19
-0.05
0.075
0.19
0.305
0.435
0.57
0.66
0.645
0.455
0.12
-0.175
-0.295
-0.26
-0.255
-0.275
-0.28
-0.28
-0.275
-0.28
-0.28
-0.285
-0.295
-0.3
-0.29
-0.285
-0.295
-0.3
-0.31
-0.295
-0.305
-0.29
-0.285
-0.3
-0.305
-0.3
-0.29
-0.285
-0.29
-0.29
-0.295
-0.29
-0.29
-0.285
-0.285
-0.29
-0.31
-0.305
-0.285
-0.28
-0.28
-0.285
-0.295
-0.305
-0.29
-0.27
-0.28
-0.28
-0.295
-0.305
-0.295
-0.28
-0.28
-0.285
-0.295
-0.295
-0.295
-0.29
-0.295
-0.3
-0.31
-0.3
-0.3
-0.295
-0.305
-0.315
-0.33
-0.325
-0.325
-0.315
-0.325
-0.33
-0.345
-0.35
-0.345
-0.335
-0.355
-0.38
-0.375
-0.385
-0.375
-0.37
-0.38
-0.395
-0.41
-0.41
-0.405
-0.4
-0.405
-0.42
-0.43
-0.43
-0.42
-0.41
-0.405
-0.405
-0.41
-0.405
-0.385
-0.37
-0.355
-0.345
-0.335
-0.32
-0.3
-0.28
-0.27
-0.265
-0.265
-0.25
-0.225
-0.215
-0.215
-0.23
-0.225
-0.225
-0.225
-0.21
-0.21
-0.215
-0.21
-0.21
-0.21
-0.195
-0.2
-0.215
-0.22
-0.215
-0.205
-0.195
-0.205
-0.22
-0.225
-0.22
-0.21
-0.205
-0.21
-0.215
-0.225
-0.23
-0.22
-0.21
-0.22
-0.22
-0.235
-0.235
-0.225
-0.215
-0.22
-0.225
-0.235
-0.235
-0.23
-0.215
-0.215
-0.225
-0.24
-0.25
-0.235
-0.235
-0.235
-0.235
-0.26
-0.25
-0.235
-0.235
-0.23
-0.24
-0.25
-0.245
-0.24
-0.24
-0.24
-0.245
-0.25
-0.255
-0.245
-0.24
-0.245
-0.255
-0.255
-0.26
-0.245
-0.23
-0.25
-0.245
-0.26
-0.26
-0.24
-0.23
-0.225
-0.23
-0.25
-0.25
-0.24
-0.23
-0.235
-0.245
-0.24
-0.23
-0.225
-0.235
-0.23
-0.23
-0.24
-0.245
-0.23
-0.225
-0.225
-0.23
-0.245
-0.24
-0.23
-0.215
-0.21
-0.225
-0.225
-0.23
-0.215
-0.2
-0.205
-0.21
-0.21
-0.2
-0.19
-0.18
-0.185
-0.195
-0.2
-0.195
-0.185
-0.155
-0.165
-0.17
-0.18
-0.175
-0.18
-0.16
-0.185
-0.19
-0.205
-0.205
-0.195
-0.19
-0.2
-0.205
-0.225
-0.23
-0.225
-0.2
-0.215
-0.225
-0.23
-0.245
-0.235
-0.215
-0.225
-0.235
-0.23
-0.235
-0.22
-0.22
-0.225
-0.225
-0.225
-0.23
-0.225
-0.225
-0.245
-0.28
-0.305
-0.335
-0.35
-0.36
-0.36
-0.315
-0.22
-0.095
0.025
0.14
0.245
0.365
0.465
0.565
0.58
0.415
0.075
-0.21
-0.33
-0.3
-0.27
-0.26
-0.26
-0.255
-0.265
-0.265
-0.255
-0.25
-0.26
-0.265
-0.26
-0.275
-0.255
-0.255
-0.26
-0.275
-0.275
-0.275
-0.26
-0.26
-0.255
-0.275
-0.285
-0.28
-0.265
-0.25
-0.25
-0.26
-0.275
-0.285
-0.275
-0.25
-0.255
-0.255
-0.27
-0.27
-0.255
-0.25
-0.25
-0.255
-0.255
-0.25
-0.255
-0.235
-0.24
-0.255
-0.255
-0.265
-0.26
-0.25
-0.25
-0.26
-0.275
-0.28
-0.275
-0.255
-0.265
-0.285
-0.28
-0.295
-0.295
-0.275
-0.285
-0.295
-0.305
-0.305
-0.305
-0.305
-0.31
-0.315
-0.33
-0.33
-0.315
-0.315
-0.32
-0.34
-0.365
-0.36
-0.36
-0.345
-0.365
-0.365
-0.385
-0.385
-0.39
-0.375
-0.365
-0.385
-0.4
-0.395
-0.39
-0.38
-0.385
-0.4
-0.405
-0.4
-0.395
-0.37
-0.37
-0.365
-0.37
-0.35
-0.335
-0.32
-0.32
-0.31
-0.305
-0.295
-0.285
-0.27
-0.255
-0.265
-0.27
-0.25
-0.24
-0.225
-0.23
-0.225
-0.235
-0.245
-0.25
-0.235
-0.235
-0.24
-0.255
-0.25
-0.235
-0.235
-0.24
-0.245
-0.255
-0.255
-0.26
-0.245
-0.245
-0.255
-0.265
-0.27
-0.26
-0.24
-0.24
-0.255
-0.28
-0.265
-0.265
-0.26
-0.26
-0.255
-0.26
-0.26
-0.255
-0.25
-0.26
-0.265
-0.28
-0.29
-0.275
-0.255
-0.26
-0.275
-0.29
-0.29
-0.285
-0.28
-0.275
-0.28
-0.285
-0.29
-0.285
-0.275
-0.285
-0.285
-0.285
-0.295
-0.285
-0.28
-0.275
-0.29
-0.3
-0.295
-0.285
-0.28
-0.28
-0.295
-0.295
-0.3
-0.29
-0.27
-0.275
-0.28
-0.29
-0.295
-0.285
-0.285
-0.285
-0.29
-0.3
-0.295
-0.295
-0.275
-0.28
-0.28
-0.3
-0.3
-0.285
-0.275
-0.27
-0.295
-0.295
-0.305
-0.29
-0.27
-0.28
-0.29
-0.29
-0.275
-0.255
-0.25
-0.26
-0.27
-0.28
-0.27
-0.265
-0.245
-0.245
-0.255
-0.25
-0.24
-0.235
-0.23
-0.23
-0.25
-0.265
-0.275
-0.275
-0.26
-0.255
-0.265
-0.29
-0.295
-0.295
-0.28
-0.27
-0.29
-0.3
-0.295
-0.3
-0.3
-0.3
-0.305
-0.295
-0.295
-0.295
-0.3
-0.3
-0.3
-0.3
-0.315
-0.305
-0.28
-0.29
-0.295
-0.325
-0.34
-0.36
-0.365
-0.38
-0.415
-0.45
-0.42
-0.345
-0.245
-0.16
-0.09
-0.06
-0.005
0.05
0.165
0.265
0.38
0.46
0.495
0.485
0.335
0.045
-0.245
-0.43
-0.48
-0.43
-0.4
-0.38
-0.365
-0.355
-0.365
-0.345
-0.345
-0.34
-0.345
-0.365
-0.36
-0.36
-0.34
-0.35
-0.345
-0.365
-0.36
-0.36
-0.345
-0.345
-0.36
-0.36
-0.37
-0.355
-0.345
-0.345
-0.355
-0.36
-0.36
-0.355
-0.35
-0.34
-0.345
-0.36
-0.345
-0.355
-0.335
-0.35
-0.365
-0.36
-0.37
-0.36
-0.345
-0.34
-0.355
-0.375
-0.38
-0.365
-0.36
-0.355
-0.355
-0.35
-0.365
-0.355
-0.36
-0.365
-0.385
-0.39
-0.38
-0.37
-0.365
-0.385
-0.385
-0.42
-0.405
-0.39
-0.39
-0.385
-0.395
-0.405
-0.4
-0.395
-0.395
-0.405
-0.425
-0.44
-0.455
-0.455
-0.445
-0.465
-0.465
-0.48
-0.485
-0.485
-0.485
-0.49
-0.5
-0.51
-0.525
-0.51
-0.495
-0.5
-0.515
-0.51
-0.49
-0.475
-0.45
-0.45
-0.45
-0.44
-0.43
-0.405
-0.39
-0.39
-0.38
-0.38
-0.37
-0.355
-0.34
-0.34
-0.33
-0.34
-0.33
-0.325
-0.32
-0.32
-0.32
-0.325
-0.335
-0.315
-0.315
-0.305
-0.325
-0.34
-0.345
-0.325
-0.32
-0.32
-0.325
-0.34
-0.345
-0.33
-0.31
-0.315
-0.32
-0.345
-0.345
-0.325
-0.34
-0.335
-0.345
-0.34
-0.35
-0.345
-0.335
-0.345
-0.345
-0.355
-0.355
-0.345
-0.335
-0.345
-0.345
-0.355
-0.35
-0.355
-0.34
-0.355
-0.36
-0.355
-0.34
-0.345
-0.345
-0.345
-0.355
-0.34
-0.37
-0.37
-0.35
-0.35
-0.35
-0.36
-0.37
-0.37
-0.36
-0.36
-0.355
-0.36
-0.36
-0.35
-0.345
-0.35
-0.355
-0.365
-0.36
-0.35
-0.33
-0.335
-0.34
-0.35
-0.36
-0.34
-0.34
-0.335
-0.34
-0.35
-0.35
-0.34
-0.33
-0.33
-0.34
-0.345
-0.345
-0.345
-0.335
-0.32
-0.335
-0.34
-0.345
-0.325
-0.3
-0.315
-0.315
-0.305
-0.3
-0.28
-0.27
-0.29
-0.29
-0.295
-0.29
-0.275
-0.255
-0.265
-0.275
-0.28
-0.285
-0.28
-0.27
-0.285
-0.305
-0.305
-0.305
-0.295
-0.295
-0.295
-0.315
-0.325
-0.325
-0.31
-0.305
-0.3
-0.31
-0.325
-0.325
-0.325
-0.305
-0.305
-0.325
-0.32
-0.325
-0.31
-0.31
-0.315
-0.32
-0.325
-0.32
-0.315
-0.305
-0.3
-0.325
-0.335
-0.35
-0.355
-0.38
-0.415
-0.43
-0.455
-0.41
-0.305
-0.16
-0.045
0.035
0.12
0.245
0.385
0.495
0.475
0.295
-0.04
-0.35
-0.44
-0.415
-0.38
-0.36
-0.365
-0.355
-0.34
-0.34
-0.335
-0.35
-0.37
-0.36
-0.355
-0.355
-0.35
-0.35
-0.355
-0.35
-0.35
-0.34
-0.345
-0.345
-0.35
-0.345
-0.335
-0.335
-0.33
-0.345
-0.345
-0.34
-0.335
-0.32
-0.335
-0.33
-0.34
-0.34
-0.335
-0.325
-0.325
-0.34
-0.345
-0.345
-0.32
-0.32
-0.33
-0.345
-0.335
-0.34
-0.33
-0.325
-0.33
-0.34
-0.345
-0.35
-0.335
-0.325
-0.34
-0.335
-0.355
-0.36
-0.355
-0.35
-0.345
-0.355
-0.375
-0.365
-0.375
-0.375
-0.365
-0.375
-0.385
-0.39
-0.38
-0.37
-0.38
-0.39
-0.405
-0.425
-0.42
-0.425
-0.425
-0.435
-0.445
-0.45
-0.46
-0.455
-0.47
-0.475
-0.49
-0.49
-0.475
-0.465
-0.47
-0.48
-0.485
-0.47
-0.465
-0.43
-0.43
-0.42
-0.42
-0.39
-0.375
-0.365
-0.35
-0.34
-0.325
-0.325
-0.31
-0.29
-0.285
-0.29
-0.29
-0.285
-0.27
-0.245
-0.265
-0.265
-0.28
-0.29
-0.27
-0.255
-0.27
-0.265
-0.275
-0.28
-0.275
-0.265
-0.27
-0.28
-0.28
-0.285
-0.275
-0.265
-0.27
-0.27
-0.285
-0.29
-0.27
-0.26
-0.265
-0.28
-0.285
-0.28
-0.28
-0.27
-0.28
-0.28
-0.285
-0.29
-0.28
-0.275
-0.29
-0.295
-0.305
-0.295
-0.285
-0.28
-0.29
-0.3
-0.31
-0.31
-0.305
-0.285
-0.29
-0.295
-0.305
-0.305
-0.3
-0.295
-0.3
-0.29
-0.305
-0.3
-0.285
-0.27
-0.275
-0.29
-0.295
-0.3
-0.295
-0.285
-0.285
-0.285
-0.29
-0.285
-0.28
-0.27
-0.29
-0.29
-0.295
-0.28
-0.285
-0.27
-0.275
-0.285
-0.29
-0.285
-0.28
-0.255
-0.265
-0.265
-0.28
-0.285
-0.28
-0.27
-0.25
-0.27
-0.265
-0.28
-0.275
-0.265
-0.27
-0.28
-0.28
-0.28
-0.255
-0.26
-0.25
-0.255
-0.26
-0.255
-0.235
-0.215
-0.225
-0.235
-0.235
-0.24
-0.23
-0.21
-0.205
-0.205
-0.2
-0.2
-0.2
-0.19
-0.19
-0.205
-0.21
-0.205
-0.205
-0.2
-0.21
-0.225
-0.235
-0.235
-0.23
-0.215
-0.225
-0.235
-0.235
-0.245
-0.24
-0.23
-0.24
-0.245
-0.255
-0.26
-0.255
-0.23
-0.245
-0.255
-0.255
-0.255
-0.245
-0.235
-0.245
-0.25
-0.26
-0.26
-0.25
-0.24
-0.25
-0.265
-0.275
-0.275
-0.295
-0.31
-0.34
-0.375
-0.41
-0.42
-0.365
-0.235
-0.115
0.015
0.115
0.235
0.37
0.5
0.615
0.705
0.71
0.51
0.16
-0.125
-0.285
-0.295
-0.295
-0.305
-0.29
-0.28
-0.275
-0.27
-0.29
-0.29
-0.29
-0.28
-0.285
-0.295
-0.295
-0.305
-0.3
-0.3
-0.29
-0.295
-0.305
-0.31
-0.3
-0.29
-0.29
-0.295
-0.31
-0.3
-0.295
-0.28
-0.285
-0.295
-0.305
-0.31
-0.29
-0.285
-0.29
-0.29
-0.295
-0.3
-0.29
-0.28
-0.285
-0.29
-0.3
-0.305
-0.295
-0.28
-0.3
-0.295
-0.305
-0.305
-0.29
-0.275
-0.29
-0.3
-0.305
-0.31
-0.295
-0.295
-0.3
-0.305
-0.315
-0.315
-0.32
-0.315
-0.33
-0.32
-0.335
-0.34
-0.33
-0.31
-0.325
-0.33
-0.345
-0.35
-0.355
-0.345
-0.355
-0.36
-0.375
-0.39
-0.37
-0.38
-0.39
-0.4
-0.41
-0.41
-0.405
-0.405
-0.43
-0.44
-0.445
-0.465
-0.455
-0.445
-0.455
-0.455
-0.465
-0.47
-0.46
-0.45
-0.44
-0.445
-0.44
-0.43
-0.405
-0.395
-0.385
-0.37
-0.375
-0.355
-0.335
-0.305
-0.3
-0.305
-0.305
-0.29
-0.28
-0.27
-0.265
-0.265
-0.26
-0.265
-0.25
-0.245
-0.235
-0.24
-0.27
-0.26
-0.245
-0.245
-0.24
-0.25
-0.255
-0.26
-0.25
-0.24
-0.25
-0.255
-0.255
-0.26
-0.245
-0.245
-0.25
-0.265
-0.265
-0.265
-0.27
-0.245
-0.245
-0.25
-0.26
-0.265
-0.255
-0.26
-0.26
-0.265
-0.265
-0.26
-0.27
-0.255
-0.26
-0.275
-0.27
-0.275
-0.255
-0.255
-0.265
-0.27
-0.285
-0.275
-0.265
-0.265
-0.27
-0.27
-0.27
-0.265
-0.27
-0.265
-0.27
-0.275
-0.28
-0.295
-0.29
-0.275
-0.265
-0.27
-0.285
-0.275
-0.275
-0.265
-0.27
-0.28
-0.28
-0.28
-0.265
-0.255
-0.27
-0.275
-0.275
-0.28
-0.26
-0.255
-0.26
-0.255
-0.275
-0.275
-0.26
-0.255
-0.265
-0.26
-0.27
-0.265
-0.255
-0.25
-0.26
-0.255
-0.275
-0.265
-0.255
-0.24
-0.245
-0.255
-0.245
-0.265
-0.245
-0.24
-0.245
-0.25
-0.265
-0.265
-0.24
-0.225
-0.235
-0.25
-0.245
-0.25
-0.235
-0.22
-0.215
-0.21
-0.21
-0.225
-0.205
-0.2
-0.195
-0.205
-0.2
-0.195
-0.175
-0.175
-0.185
-0.185
-0.19
-0.205
-0.19
-0.195
-0.21
-0.21
-0.22
-0.225
-0.215
-0.215
-0.225
-0.22
-0.235
-0.235
-0.23
-0.22
-0.22
-0.24
-0.24
-0.245
-0.23
-0.23
-0.23
-0.245
-0.255
-0.25
-0.25
-0.24
-0.245
-0.25
-0.245
-0.25
-0.235
-0.22
-0.23
-0.245
-0.27
-0.275
-0.28
-0.285
-0.32
-0.345
-0.39
-0.395
-0.375
-0.29
-0.17
-0.05
0.04
0.125
0.245
0.365
0.46
0.56
0.6
0.515
0.275
-0.03
-0.26
-0.34
-0.305
-0.275
-0.285
-0.265
-0.25
-0.26
-0.27
-0.27
-0.27
-0.265
-0.27
-0.27
-0.28
-0.29
-0.275
-0.265
-0.27
-0.275
-0.28
-0.28
-0.27
-0.27
-0.27
-0.26
-0.28
-0.29
-0.27
-0.255
-0.265
-0.27
-0.285
-0.285
-0.25
-0.25
-0.27
-0.265
-0.275
-0.27
-0.265
-0.255
-0.255
-0.265
-0.275
-0.275
-0.265
-0.25
-0.26
-0.27
-0.28
-0.28
-0.275
-0.26
-0.265
-0.28
-0.285
-0.285
-0.265
-0.265
-0.275
-0.295
-0.3
-0.3
-0.285
-0.275
-0.295
-0.31
-0.305
-0.32
-0.305
-0.305
-0.31
-0.315
-0.335
-0.335
-0.335
-0.325
-0.335
-0.35
-0.37
-0.38
-0.37
-0.36
-0.38
-0.385
-0.4
-0.41
-0.405
-0.395
-0.4
-0.42
-0.43
-0.43
-0.43
-0.405
-0.415
-0.42
-0.425
-0.415
-0.41
-0.38
-0.38
-0.375
-0.38
-0.37
-0.345
-0.31
-0.32
-0.3
-0.305
-0.3
-0.29
-0.27
-0.275
-0.275
-0.275
-0.27
-0.245
-0.245
-0.24
-0.245
-0.255
-0.27
-0.265
-0.25
-0.25
-0.245
-0.255
-0.255
-0.255
-0.23
-0.245
-0.27
-0.275
-0.27
-0.255
-0.245
-0.26
-0.26
-0.27
-0.275
-0.265
-0.245
-0.255
-0.27
-0.265
-0.28
-0.27
-0.26
-0.265
-0.275
-0.275
-0.275
-0.285
-0.26
-0.275
-0.285
-0.29
-0.29
-0.275
-0.27
-0.285
-0.29
-0.305
-0.305
-0.295
-0.285
-0.295
-0.29
-0.305
-0.3
-0.3
-0.295
-0.295
-0.29
-0.295
-0.295
-0.29
-0.275
-0.285
-0.305
-0.305
-0.305
-0.295
-0.285
-0.275
-0.275
-0.285
-0.295
-0.29
-0.275
-0.285
-0.305
-0.3
-0.31
-0.295
-0.27
-0.29
-0.28
-0.295
-0.3
-0.295
-0.285
-0.285
-0.29
-0.305
-0.295
-0.285
-0.28
-0.285
-0.31
-0.315
-0.31
-0.3
-0.295
-0.295
-0.295
-0.3
-0.31
-0.29
-0.28
-0.27
-0.27
-0.27
-0.265
-0.25
-0.25
-0.255
-0.265
-0.26
-0.245
-0.235
-0.225
-0.25
-0.25
-0.265
-0.265
-0.245
-0.24
-0.24
-0.25
-0.275
-0.285
-0.28
-0.265
-0.27
-0.275
-0.29
-0.3
-0.285
-0.285
-0.295
-0.295
-0.3
-0.305
-0.285
-0.265
-0.295
-0.31
-0.32
-0.325
-0.315
-0.3
-0.29
-0.3
-0.315
-0.3
-0.305
-0.29
-0.285
-0.3
-0.3
-0.295
-0.28
-0.295
-0.32
-0.36
-0.395
-0.385
-0.395
-0.42
-0.445
-0.425
-0.37
-0.26
-0.14
-0.07
-0.01
0.065
0.15
0.285
0.405
0.425
0.255
-0.065
-0.35
-0.47
-0.44
-0.39
-0.36
-0.35
-0.35
-0.36
-0.35
-0.34
-0.335
-0.335
-0.335
-0.335
-0.31
-0.33
-0.34
-0.345
-0.355
-0.335
-0.33
-0.315
-0.335
-0.335
-0.335
-0.34
-0.315
-0.305
-0.305
-0.31
-0.315
-0.32
-0.32
-0.305
-0.325
-0.33
-0.33
-0.325
-0.325
-0.32
-0.335
-0.33
-0.345
-0.33
-0.33
-0.32
-0.33
-0.335
-0.335
-0.33
-0.315
-0.315
-0.32
-0.32
-0.335
-0.345
-0.34
-0.34
-0.33
-0.335
-0.35
-0.355
-0.335
-0.325
-0.35
-0.355
-0.36
-0.365
-0.355
-0.355
-0.355
-0.37
-0.37
-0.375
-0.385
-0.37
-0.395
-0.4
-0.405
-0.41
-0.43
-0.42
-0.44
-0.45
-0.45
-0.46
-0.46
-0.465
-0.475
-0.475
-0.49
-0.5
-0.475
-0.47
-0.47
-0.46
-0.47
-0.47
-0.45
-0.425
-0.415
-0.385
-0.395
-0.375
-0.36
-0.355
-0.335
-0.33
-0.325
-0.32
-0.31
-0.295
-0.285
-0.29
-0.3
-0.31
-0.29
-0.275
-0.265
-0.28
-0.29
-0.29
-0.275
-0.27
-0.27
-0.27
-0.285
-0.295
-0.285
-0.27
-0.285
-0.27
-0.285
-0.285
-0.28
-0.265
-0.275
-0.28
-0.29
-0.285
-0.29
-0.265
-0.27
-0.28
-0.285
-0.29
-0.28
-0.285
-0.285
-0.295
-0.305
-0.315
-0.295
-0.285
-0.285
-0.3
-0.305
-0.315
-0.3
-0.295
-0.29
-0.3
-0.3
-0.315
-0.305
-0.29
-0.295
-0.295
-0.305
-0.31
-0.3
-0.28
-0.285
-0.305
-0.29
-0.295
-0.27
-0.27
-0.29
-0.28
-0.275
-0.285
-0.28
-0.265
-0.28
-0.28
-0.285
-0.285
-0.28
-0.26
-0.27
-0.265
-0.28
-0.28
-0.28
-0.27
-0.255
-0.265
-0.28
-0.28
-0.27
-0.265
-0.265
-0.275
-0.275
-0.265
-0.25
-0.23
-0.245
-0.25
-0.255
-0.25
-0.23
-0.21
-0.205
-0.215
-0.23
-0.22
-0.22
-0.195
-0.19
-0.2
-0.2
-0.195
-0.2
-0.18
-0.21
-0.205
-0.21
-0.22
-0.21
-0.215
-0.225
-0.22
-0.225
-0.24
-0.225
-0.22
-0.225
-0.225
-0.245
-0.245
-0.235
-0.235
-0.245
-0.25
-0.25
-0.245
-0.235
-0.23
-0.23
-0.24
-0.25
-0.245
-0.245
-0.23
-0.24
-0.245
-0.245
-0.255
-0.235
-0.23
-0.24
-0.25
-0.27
-0.29
-0.31
-0.325
-0.365
-0.38
-0.36
-0.26
-0.115
0.01
0.1
0.195
0.29
0.42
0.545
0.615
0.505
0.22
-0.13
-0.35
-0.365
-0.305
-0.285
-0.28
-0.275
-0.265
-0.265
-0.255
-0.26
-0.27
-0.27
-0.275
-0.26
-0.245
-0.25
-0.265
-0.275
-0.275
-0.26
-0.25
-0.245
-0.25
-0.265
-0.26
-0.26
-0.25
-0.255
-0.26
-0.255
-0.255
-0.245
-0.24
-0.245
-0.255
-0.265
-0.255
-0.24
-0.23
-0.23
-0.23
-0.25
-0.25
-0.235
-0.245
-0.235
-0.235
-0.265
-0.245
-0.24
-0.225
-0.245
-0.235
-0.25
-0.26
-0.25
-0.23
-0.24
-0.24
-0.25
-0.26
-0.255
-0.25
-0.265
-0.26
-0.28
-0.28
-0.27
-0.27
-0.275
-0.285
-0.305
-0.3
-0.305
-0.29
-0.305
-0.32
-0.34
-0.35
-0.335
-0.33
-0.345
-0.365
-0.38
-0.385
-0.385
-0.37
-0.385
-0.4
-0.4
-0.42
-0.4
-0.39
-0.395
-0.39
-0.395
-0.375
-0.355
-0.33
-0.325
-0.32
-0.305
-0.28
-0.265
-0.245
-0.235
-0.23
-0.235
-0.22
-0.205
-0.19
-0.18
-0.19
-0.195
-0.19
-0.185
-0.17
-0.17
-0.185
-0.185
-0.185
-0.18
-0.17
-0.18
-0.18
-0.19
-0.185
-0.18
-0.16
-0.16
-0.175
-0.185
-0.195
-0.19
-0.175
-0.18
-0.2
-0.195
-0.195
-0.18
-0.18
-0.18
-0.185
-0.22
-0.2
-0.2
-0.19
-0.19
-0.2
-0.22
-0.215
-0.205
-0.19
-0.2
-0.205
-0.215
-0.22
-0.21
-0.2
-0.21
-0.21
-0.215
-0.225
-0.225
-0.21
-0.21
-0.22
-0.22
-0.225
-0.22
-0.205
-0.21
-0.22
-0.24
-0.24
-0.2
-0.195
-0.2
-0.205
-0.21
-0.22
-0.21
-0.185
-0.2
-0.2
-0.22
-0.21
-0.21
-0.2
-0.195
-0.205
-0.19
-0.215
-0.2
-0.19
-0.2
-0.21
-0.21
-0.205
-0.195
-0.175
-0.185
-0.21
-0.21
-0.215
-0.21
-0.195
-0.2
-0.205
-0.21
-0.205
-0.195
-0.18
-0.18
-0.185
-0.195
-0.195
-0.165
-0.155
-0.14
-0.17
-0.175
-0.165
-0.165
-0.15
-0.14
-0.13
-0.14
-0.155
-0.145
-0.135
-0.145
-0.14
-0.16
-0.16
-0.175
-0.16
-0.165
-0.175
-0.185
-0.195
-0.175
-0.18
-0.185
-0.2
-0.21
-0.205
-0.21
-0.18
-0.19
-0.205
-0.215
-0.21
-0.215
-0.19
-0.185
-0.2
-0.205
-0.21
-0.2
-0.2
-0.2
-0.225
-0.23
-0.255
-0.275
-0.3
-0.34
-0.37
-0.375
-0.3
-0.16
-0.02
0.085
0.16
0.2
0.26
0.34
0.435
0.5
0.57
0.655
0.755
0.79
0.645
0.32
-0.065
-0.255
-0.26
-0.23
-0.22
-0.23
-0.225
-0.24
-0.255
-0.25
-0.245
-0.245
-0.27
-0.26
-0.27
-0.25
-0.25
-0.255
-0.26
-0.27
-0.27
-0.25
-0.26
-0.255
-0.255
-0.275
-0.275
-0.275
-0.245
-0.245
-0.25
-0.265
-0.27
-0.26
-0.255
-0.26
-0.27
-0.27
-0.265
-0.255
-0.26
-0.25
-0.25
-0.27
-0.275
-0.26
-0.255
-0.27
-0.255
-0.27
-0.27
-0.275
-0.265
-0.26
-0.28
-0.27
-0.275
-0.27
-0.27
-0.28
-0.295
-0.3
-0.3
-0.295
-0.295
-0.29
-0.315
-0.335
-0.325
-0.325
-0.31
-0.32
-0.345
-0.36
-0.365
-0.365
-0.35
-0.37
-0.375
-0.39
-0.405
-0.405
-0.4
-0.415
-0.42
-0.425
-0.43
-0.425
-0.415
-0.425
-0.43
-0.425
-0.43
-0.395
-0.38
-0.375
-0.37
-0.375
-0.35
-0.325
-0.3
-0.295
-0.28
-0.28
-0.275
-0.26
-0.245
-0.265
-0.255
-0.255
-0.255
-0.225
-0.215
-0.22
-0.21
-0.215
-0.22
-0.215
-0.2
-0.195
-0.21
-0.21
-0.215
-0.215
-0.2
-0.205
-0.215
-0.22
-0.23
-0.2
-0.21
-0.215
-0.225
-0.22
-0.225
-0.215
-0.21
-0.2
-0.235
-0.225
-0.22
-0.215
-0.21
-0.205
-0.235
-0.235
-0.255
-0.225
-0.225
-0.22
-0.23
-0.25
-0.26
-0.24
-0.235
-0.24
-0.23
-0.245
-0.245
-0.24
-0.235
-0.235
-0.25
-0.25
-0.25
-0.225
-0.225
-0.235
-0.24
-0.25
-0.26
-0.23
-0.215
-0.22
-0.235
-0.24
-0.255
-0.24
-0.225
-0.22
-0.23
-0.235
-0.23
-0.225
-0.215
-0.21
-0.215
-0.225
-0.225
-0.21
-0.21
-0.215
-0.22
-0.22
-0.225
-0.215
-0.2
-0.22
-0.23
-0.23
-0.225
-0.21
-0.205
-0.21
-0.205
-0.215
-0.21
-0.195
-0.175
-0.165
-0.19
-0.19
-0.185
-0.18
-0.18
-0.175
-0.185
-0.19
-0.195
-0.175
-0.155
-0.15
-0.155
-0.17
-0.175
-0.165
-0.155
-0.16
-0.17
-0.18
-0.19
-0.185
-0.17
-0.19
-0.205
-0.21
-0.22
-0.215
-0.21
-0.215
-0.225
-0.235
-0.225
-0.225
-0.215
-0.21
-0.22
-0.225
-0.225
-0.235
-0.225
-0.235
-0.225
-0.235
-0.24
-0.235
-0.225
-0.24
-0.26
-0.285
-0.31
-0.325
-0.355
-0.39
-0.405
-0.36
-0.265
-0.14
-0.02
0.055
0.13
0.245
0.365
0.475
0.53
0.405
0.105
-0.21
-0.355
-0.355
-0.29
-0.285
-0.28
-0.28
-0.29
-0.29
-0.275
-0.275
-0.28
-0.29
-0.285
-0.29
-0.29
-0.285
-0.29
-0.305
-0.305
-0.3
-0.28
-0.3
-0.295
-0.295
-0.285
-0.275
-0.265
-0.28
-0.3
-0.3
-0.3
-0.295
-0.27
-0.285
-0.285
-0.29
-0.295
-0.29
-0.285
-0.275
-0.295
-0.29
-0.3
-0.295
-0.295
-0.285
-0.29
-0.285
-0.295
-0.285
-0.275
-0.29
-0.28
-0.29
-0.305
-0.29
-0.275
-0.29
-0.29
-0.295
-0.305
-0.295
-0.295
-0.3
-0.32
-0.325
-0.32
-0.31
-0.3
-0.32
-0.335
-0.35
-0.35
-0.325
-0.33
-0.34
-0.345
-0.36
-0.38
-0.38
-0.37
-0.375
-0.38
-0.4
-0.405
-0.4
-0.4
-0.415
-0.425
-0.43
-0.445
-0.435
-0.42
-0.44
-0.44
-0.455
-0.465
-0.43
-0.405
-0.405
-0.395
-0.41
-0.395
-0.355
-0.33
-0.32
-0.315
-0.32
-0.31
-0.295
-0.285
-0.29
-0.28
-0.28
-0.28
-0.265
-0.26
-0.255
-0.255
-0.265
-0.265
-0.265
-0.255
-0.25
-0.255
-0.26
-0.26
-0.25
-0.245
-0.255
-0.25
-0.265
-0.26
-0.245
-0.25
-0.26
-0.27
-0.265
-0.265
-0.255
-0.24
-0.26
-0.27
-0.28
-0.29
-0.27
-0.26
-0.265
-0.275
-0.285
-0.295
-0.285
-0.285
-0.28
-0.29
-0.295
-0.29
-0.28
-0.265
-0.285
-0.285
-0.3
-0.305
-0.295
-0.28
-0.28
-0.29
-0.305
-0.305
-0.295
-0.28
-0.295
-0.295
-0.305
-0.305
-0.305
-0.28
-0.29
-0.295
-0.3
-0.31
-0.295
-0.285
-0.29
-0.305
-0.29
-0.295
-0.275
-0.27
-0.285
-0.3
-0.3
-0.31
-0.3
-0.285
-0.285
-0.29
-0.295
-0.3
-0.29
-0.285
-0.285
-0.29
-0.295
-0.295
-0.29
-0.28
-0.29
-0.27
-0.29
-0.275
-0.26
-0.255
-0.26
-0.28
-0.28
-0.285
-0.27
-0.24
-0.23
-0.235
-0.245
-0.24
-0.23
-0.23
-0.23
-0.24
-0.265
-0.26
-0.245
-0.25
-0.265
-0.295
-0.29
-0.295
-0.28
-0.285
-0.28
-0.29
-0.32
-0.31
-0.305
-0.295
-0.295
-0.295
-0.295
-0.3
-0.3
-0.29
-0.305
-0.305
-0.32
-0.305
-0.295
-0.29
-0.285
-0.29
-0.305
-0.305
-0.3
-0.29
-0.315
-0.315
-0.33
-0.345
-0.355
-0.375
-0.4
-0.43
-0.44
-0.405
-0.32
-0.215
-0.115
-0.055
0
0.085
0.225
0.355
0.43
0.355
0.06
-0.275
-0.465
-0.465
-0.43
-0.385
-0.375
-0.36
-0.35
-0.355
-0.35
-0.355
-0.35
-0.355
-0.345
-0.33
-0.33
-0.345
-0.345
-0.35
-0.335
-0.315
-0.325
-0.325
-0.335
-0.345
-0.32
-0.325
-0.33
-0.32
-0.345
-0.34
-0.33
-0.315
-0.325
-0.335
-0.34
-0.34
-0.315
-0.31
-0.325
-0.34
-0.34
-0.34
-0.33
-0.32
-0.315
-0.31
-0.325
-0.33
-0.315
-0.31
-0.31
-0.34
-0.345
-0.345
-0.335
-0.32
-0.32
-0.31
-0.325
-0.33
-0.33
-0.325
-0.33
-0.34
-0.335
-0.34
-0.335
-0.32
-0.325
-0.34
-0.355
-0.36
-0.35
-0.345
-0.355
-0.37
-0.365
-0.39
-0.375
-0.37
-0.375
-0.39
-0.415
-0.415
-0.41
-0.41
-0.425
-0.44
-0.45
-0.455
-0.44
-0.445
-0.45
-0.465
-0.475
-0.47
-0.46
-0.44
-0.445
-0.44
-0.445
-0.43
-0.4
-0.39
-0.37
-0.365
-0.355
-0.355
-0.335
-0.315
-0.305
-0.3
-0.285
-0.285
-0.27
-0.255
-0.25
-0.26
-0.265
-0.265
-0.255
-0.22
-0.23
-0.235
-0.245
-0.24
-0.22
-0.21
-0.215
-0.235
-0.245
-0.245
-0.23
-0.225
-0.22
-0.23
-0.235
-0.25
-0.24
-0.225
-0.225
-0.22
-0.235
-0.235
-0.225
-0.22
-0.22
-0.225
-0.24
-0.24
-0.225
-0.215
-0.23
-0.245
-0.255
-0.24
-0.235
-0.235
-0.23
-0.25
-0.25
-0.25
-0.255
-0.235
-0.23
-0.25
-0.255
-0.26
-0.25
-0.245
-0.25
-0.25
-0.265
-0.25
-0.245
-0.245
-0.25
-0.255
-0.26
-0.265
-0.255
-0.24
-0.24
-0.24
-0.255
-0.245
-0.24
-0.235
-0.245
-0.24
-0.245
-0.25
-0.235
-0.23
-0.24
-0.235
-0.25
-0.245
-0.245
-0.23
-0.23
-0.235
-0.245
-0.245
-0.235
-0.215
-0.22
-0.24
-0.24
-0.235
-0.24
-0.235
-0.23
-0.23
-0.24
-0.245
-0.24
-0.22
-0.225
-0.23
-0.235
-0.22
-0.205
-0.19
-0.195
-0.185
-0.2
-0.195
-0.205
-0.19
-0.2
-0.19
-0.185
-0.18
-0.16
-0.165
-0.165
-0.17
-0.18
-0.175
-0.17
-0.17
-0.175
-0.19
-0.21
-0.21
-0.2
-0.2
-0.2
-0.215
-0.22
-0.225
-0.22
-0.205
-0.22
-0.22
-0.23
-0.225
-0.215
-0.21
-0.225
-0.23
-0.245
-0.225
-0.215
-0.21
-0.215
-0.21
-0.225
-0.23
-0.235
-0.235
-0.265
-0.295
-0.335
-0.385
-0.385
-0.37
-0.32
-0.215
-0.1
0
0.09
0.17
0.235
0.305
0.42
0.53
0.665
0.75
0.7
0.44
0.07
-0.22
-0.285
-0.255
-0.235
-0.245
-0.255
-0.255
-0.245
-0.245
-0.25
-0.26
-0.265
-0.27
-0.26
-0.25
-0.25
-0.26
-0.265
-0.27
-0.27
-0.25
-0.26
-0.26
-0.26
-0.265
-0.255
-0.26
-0.25
-0.26
-0.265
-0.265
-0.26
-0.265
-0.255
-0.26
-0.275
-0.265
-0.255
-0.24
-0.245
-0.245
-0.26
-0.26
-0.265
-0.25
-0.25
-0.27
-0.265
-0.26
-0.255
-0.25
-0.26
-0.265
-0.275
-0.275
-0.265
-0.26
-0.255
-0.275
-0.275
-0.275
-0.27
-0.275
-0.27
-0.275
-0.3
-0.295
-0.29
-0.285
-0.29
-0.3
-0.33
-0.325
-0.31
-0.305
-0.325
-0.335
-0.36
-0.355
-0.35
-0.35
-0.36
-0.36
-0.385
-0.395
-0.39
-0.39
-0.4
-0.4
-0.425
-0.41
-0.42
-0.405
-0.405
-0.41
-0.42
-0.41
-0.405
-0.38
-0.38
-0.375
-0.38
-0.36
-0.345
-0.33
-0.34
-0.32
-0.315
-0.3
-0.28
-0.25
-0.255
-0.24
-0.24
-0.235
-0.23
-0.2
-0.195
-0.205
-0.21
-0.21
-0.21
-0.185
-0.19
-0.195
-0.19
-0.205
-0.21
-0.19
-0.2
-0.205
-0.21
-0.2
-0.195
-0.185
-0.19
-0.19
-0.21
-0.215
-0.2
-0.2
-0.2
-0.2
-0.22
-0.205
-0.215
-0.2
-0.205
-0.22
-0.22
-0.225
-0.22
-0.205
-0.195
-0.215
-0.23
-0.23
-0.225
-0.205
-0.225
-0.225
-0.23
-0.23
-0.215
-0.21
-0.22
-0.235
-0.24
-0.255
-0.235
-0.225
-0.235
-0.24
-0.245
-0.25
-0.245
-0.22
-0.225
-0.225
-0.25
-0.245
-0.24
-0.23
-0.24
-0.24
-0.25
-0.24
-0.235
-0.23
-0.235
-0.23
-0.235
-0.24
-0.23
-0.21
-0.22
-0.225
-0.235
-0.23
-0.225
-0.21
-0.21
-0.215
-0.22
-0.225
-0.225
-0.21
-0.215
-0.225
-0.225
-0.22
-0.215
-0.205
-0.215
-0.22
-0.24
-0.235
-0.23
-0.21
-0.21
-0.21
-0.215
-0.21
-0.19
-0.195
-0.185
-0.185
-0.19
-0.19
-0.18
-0.175
-0.175
-0.175
-0.175
-0.16
-0.155
-0.15
-0.145
-0.165
-0.16
-0.185
-0.18
-0.17
-0.175
-0.175
-0.19
-0.185
-0.2
-0.19
-0.195
-0.19
-0.215
-0.22
-0.205
-0.205
-0.21
-0.215
-0.215
-0.22
-0.22
-0.215
-0.21
-0.215
-0.23
-0.215
-0.205
-0.205
-0.2
-0.22
-0.23
-0.23
-0.215
-0.215
-0.22
-0.25
-0.28
-0.305
-0.325
-0.34
-0.37
-0.36
-0.275
-0.155
0
0.115
0.22
0.34
0.455
0.58
0.675
0.635
0.38
0.005
-0.255
-0.305
-0.26
-0.255
-0.25
-0.26
-0.255
-0.26
-0.26
-0.25
-0.245
-0.265
-0.275
-0.285
-0.26
-0.245
-0.255
-0.255
-0.26
-0.275
-0.26
-0.25
-0.26
-0.255
-0.265
-0.265
-0.265
-0.255
-0.25
-0.26
-0.28
-0.265
-0.255
-0.24
-0.25
-0.26
-0.265
-0.265
-0.265
-0.255
-0.26
-0.25
-0.27
-0.26
-0.255
-0.245
-0.245
-0.25
-0.27
-0.26
-0.25
-0.235
-0.255
-0.25
-0.275
-0.27
-0.265
-0.255
-0.255
-0.265
-0.27
-0.285
-0.285
-0.26
-0.275
-0.285
-0.29
-0.285
-0.28
-0.27
-0.285
-0.29
-0.3
-0.32
-0.315
-0.31
-0.315
-0.325
-0.33
-0.345
-0.345
-0.34
-0.345
-0.36
-0.365
-0.37
-0.375
-0.37
-0.375
-0.395
-0.405
-0.4
-0.4
-0.395
-0.405
-0.405
-0.415
-0.42
-0.4
-0.37
-0.375
-0.37
-0.365
-0.335
-0.325
-0.31
-0.295
-0.295
-0.285
-0.26
-0.245
-0.23
-0.225
-0.235
-0.23
-0.22
-0.2
-0.19
-0.195
-0.2
-0.215
-0.215
-0.2
-0.185
-0.2
-0.195
-0.21
-0.205
-0.195
-0.19
-0.2
-0.21
-0.21
-0.2
-0.2
-0.205
-0.195
-0.19
-0.205
-0.205
-0.205
-0.2
-0.21
-0.225
-0.22
-0.225
-0.205
-0.21
-0.215
-0.225
-0.235
-0.24
-0.235
-0.215
-0.22
-0.22
-0.235
-0.24
-0.23
-0.225
-0.24
-0.225
-0.24
-0.24
-0.225
-0.22
-0.225
-0.24
-0.245
-0.25
-0.24
-0.235
-0.23
-0.24
-0.255
-0.25
-0.24
-0.23
-0.225
-0.23
-0.245
-0.245
-0.235
-0.23
-0.235
-0.235
-0.24
-0.235
-0.235
-0.22
-0.22
-0.235
-0.245
-0.245
-0.245
-0.22
-0.225
-0.235
-0.235
-0.225
-0.235
-0.215
-0.215
-0.225
-0.235
-0.245
-0.235
-0.21
-0.22
-0.23
-0.23
-0.235
-0.23
-0.22
-0.23
-0.23
-0.25
-0.245
-0.24
-0.225
-0.22
-0.22
-0.215
-0.225
-0.205
-0.2
-0.2
-0.21
-0.21
-0.21
-0.19
-0.175
-0.175
-0.195
-0.19
-0.19
-0.17
-0.17
-0.16
-0.17
-0.185
-0.185
-0.18
-0.18
-0.175
-0.185
-0.21
-0.215
-0.21
-0.2
-0.2
-0.205
-0.215
-0.235
-0.23
-0.225
-0.235
-0.24
-0.25
-0.255
-0.25
-0.245
-0.245
-0.25
-0.26
-0.27
-0.26
-0.24
-0.245
-0.255
-0.26
-0.26
-0.26
-0.25
-0.245
-0.255
-0.27
-0.265
-0.285
-0.29
-0.315
-0.345
-0.37
-0.405
-0.415
-0.385
-0.31
-0.22
-0.11
-0.035
0.045
0.145
0.24
0.37
0.44
0.405
0.215
-0.08
-0.33
-0.41
-0.39
-0.34
-0.315
-0.305
-0.315
-0.31
-0.315
-0.32
-0.315
-0.3
-0.3
-0.32
-0.32
-0.315
-0.31
-0.29
-0.295
-0.29
-0.315
-0.305
-0.31
-0.3
-0.295
-0.31
-0.32
-0.32
-0.315
-0.3
-0.3
-0.31
-0.325
-0.315
-0.32
-0.295
-0.31
-0.29
-0.305
-0.31
-0.305
-0.285
-0.305
-0.305
-0.325
-0.315
-0.3
-0.29
-0.3
-0.315
-0.325
-0.335
-0.32
-0.295
-0.31
-0.31
-0.305
-0.32
-0.32
-0.31
-0.31
-0.305
-0.32
-0.32
-0.32
-0.31
-0.315
-0.32
-0.33
-0.325
-0.315
-0.315
-0.325
-0.325
-0.325
-0.34
-0.34
-0.345
-0.345
-0.355
-0.37
-0.365
-0.375
-0.365
-0.365
-0.38
-0.395
-0.405
-0.415
-0.39
-0.4
-0.41
-0.44
-0.44
-0.445
-0.435
-0.445
-0.44
-0.45
-0.45
-0.44
-0.43
-0.44
-0.445
-0.455
-0.45
-0.43
-0.405
-0.41
-0.4
-0.4
-0.395
-0.375
-0.35
-0.33
-0.32
-0.32
-0.33
-0.305
-0.3
-0.295
-0.3
-0.32
-0.31
-0.295
-0.28
-0.265
-0.28
-0.29
-0.29
-0.29
-0.275
-0.28
-0.285
-0.29
-0.29
-0.275
-0.26
-0.28
-0.28
-0.29
-0.29
-0.285
-0.27
-0.285
-0.28
-0.305
-0.31
-0.295
-0.285
-0.285
-0.295
-0.3
-0.3
-0.29
-0.295
-0.305
-0.315
-0.325
-0.32
-0.31
-0.295
-0.305
-0.33
-0.33
-0.335
-0.31
-0.295
-0.305
-0.31
-0.305
-0.31
-0.315
-0.305
-0.305
-0.305
-0.32
-0.32
-0.31
-0.305
-0.31
-0.305
-0.325
-0.32
-0.315
-0.3
-0.305
-0.31
-0.33
-0.32
-0.305
-0.31
-0.31
-0.32
-0.325
-0.315
-0.305
-0.295
-0.295
-0.305
-0.32
-0.325
-0.315
-0.305
-0.31
-0.32
-0.32
-0.31
-0.32
-0.305
-0.31
-0.3
-0.315
-0.315
-0.305
-0.305
-0.3
-0.3
-0.32
-0.315
-0.31
-0.305
-0.3
-0.295
-0.295
-0.31
-0.295
-0.285
-0.29
-0.305
-0.305
-0.295
-0.285
-0.275
-0.275
-0.28
-0.285
-0.295
-0.275
-0.275
-0.265
-0.245
-0.255
-0.265
-0.26
-0.25
-0.255
-0.265
-0.26
-0.265
-0.265
-0.27
-0.295
-0.295
-0.315
-0.305
-0.295
-0.285
-0.295
-0.32
-0.31
-0.325
-0.31
-0.31
-0.305
-0.31
-0.315
-0.32
-0.315
-0.31
-0.315
-0.315
-0.325
-0.32
-0.32
-0.305
-0.31
-0.31
-0.325
-0.33
-0.315
-0.315
-0.305
-0.31
-0.325
-0.335
-0.355
-0.37
-0.395
-0.425
-0.445
-0.425
-0.34
-0.235
-0.14
-0.05
-0.01
0.06
0.18
0.315
0.42
0.43
0.27
-0.04
-0.33
-0.48
-0.485
-0.455
-0.42
-0.385
-0.355
-0.32
-0.335
-0.34
-0.335
-0.35
-0.345
-0.34
-0.345
-0.335
-0.34
-0.345
-0.335
-0.34
-0.33
-0.345
-0.345
-0.35
-0.335
-0.32
-0.335
-0.33
-0.34
-0.33
-0.32
-0.315
-0.315
-0.32
-0.335
-0.335
-0.32
-0.315
-0.31
-0.32
-0.32
-0.32
-0.32
-0.31
-0.305
-0.315
-0.31
-0.32
-0.31
-0.305
-0.31
-0.32
-0.315
-0.315
-0.31
-0.31
-0.305
-0.31
-0.33
-0.32
-0.315
-0.305
-0.3
-0.33
-0.335
-0.34
-0.33
-0.31
-0.315
-0.32
-0.34
-0.34
-0.335
-0.32
-0.34
-0.36
-0.375
-0.375
-0.375
-0.37
-0.375
-0.395
-0.405
-0.425
-0.425
-0.415
-0.415
-0.42
-0.445
-0.46
-0.45
-0.44
-0.43
-0.435
-0.445
-0.435
-0.42
-0.41
-0.405
-0.4
-0.4
-0.375
-0.355
-0.34
-0.32
-0.315
-0.305
-0.3
-0.275
-0.26
-0.25
-0.245
-0.26
-0.245
-0.23
-0.22
-0.22
-0.225
-0.235
-0.225
-0.235
-0.22
-0.215
-0.22
-0.235
-0.23
-0.215
-0.215
-0.21
-0.23
-0.23
-0.23
-0.225
-0.215
-0.215
-0.22
-0.24
-0.25
-0.235
-0.23
-0.23
-0.23
-0.23
-0.245
-0.235
-0.225
-0.23
-0.235
-0.245
-0.245
-0.235
-0.22
-0.225
-0.23
-0.26
-0.255
-0.24
-0.25
-0.25
-0.245
-0.25
-0.255
-0.24
-0.24
-0.24
-0.26
-0.26
-0.265
-0.24
-0.235
-0.245
-0.245
-0.265
-0.255
-0.245
-0.245
-0.24
-0.24
-0.255
-0.255
-0.235
-0.23
-0.24
-0.235
-0.23
-0.24
-0.225
-0.22
-0.23
-0.235
-0.24
-0.24
-0.215
-0.22
-0.215
-0.225
-0.235
-0.235
-0.225
-0.215
-0.215
-0.23
-0.235
-0.24
-0.23
-0.21
-0.21
-0.225
-0.23
-0.22
-0.23
-0.225
-0.225
-0.235
-0.225
-0.23
-0.21
-0.205
-0.19
-0.21
-0.215
-0.205
-0.2
-0.17
-0.17
-0.18
-0.185
-0.195
-0.17
-0.17
-0.155
-0.155
-0.165
-0.165
-0.16
-0.16
-0.15
-0.16
-0.165
-0.18
-0.16
-0.165
-0.18
-0.18
-0.19
-0.195
-0.2
-0.18
-0.2
-0.2
-0.215
-0.215
-0.2
-0.21
-0.21
-0.225
-0.21
-0.215
-0.205
-0.2
-0.2
-0.2
-0.23
-0.23
-0.22
-0.21
-0.215
-0.215
-0.225
-0.24
-0.245
-0.25
-0.27
-0.315
-0.345
-0.375
-0.37
-0.325
-0.21
-0.07
0.065
0.175
0.32
0.44
0.575
0.675
0.76
0.815
0.755
0.53
0.155
-0.16
-0.32
-0.325
-0.285
-0.27
-0.27
-0.26
-0.265
-0.28
-0.275
-0.27
-0.265
-0.285
-0.29
-0.305
-0.29
-0.28
-0.28
-0.28
-0.295
-0.3
-0.295
-0.285
-0.285
-0.28
-0.28
-0.295
-0.29
-0.28
-0.28
-0.285
-0.28
-0.285
-0.27
-0.28
-0.275
-0.285
-0.29
-0.285
-0.285
-0.26
-0.27
-0.275
-0.285
-0.29
-0.275
-0.265
-0.275
-0.275
-0.285
-0.285
-0.285
-0.28
-0.28
-0.285
-0.285
-0.3
-0.28
-0.285
-0.295
-0.31
-0.315
-0.305
-0.3
-0.29
-0.29
-0.31
-0.32
-0.31
-0.325
-0.315
-0.33
-0.345
-0.345
-0.35
-0.355
-0.35
-0.365
-0.375
-0.385
-0.405
-0.395
-0.385
-0.4
-0.41
-0.43
-0.425
-0.41
-0.41
-0.415
-0.425
-0.43
-0.425
-0.42
-0.405
-0.39
-0.39
-0.38
-0.365
-0.35
-0.315
-0.31
-0.295
-0.28
-0.28
-0.25
-0.245
-0.23
-0.235
-0.23
-0.225
-0.205
-0.205
-0.2
-0.215
-0.22
-0.215
-0.21
-0.19
-0.2
-0.21
-0.215
-0.22
-0.2
-0.2
-0.195
-0.205
-0.215
-0.205
-0.205
-0.21
-0.205
-0.215
-0.225
-0.23
-0.225
-0.22
-0.225
-0.24
-0.24
-0.245
-0.23
-0.215
-0.24
-0.245
-0.255
-0.245
-0.225
-0.235
-0.235
-0.24
-0.25
-0.26
-0.25
-0.235
-0.24
-0.245
-0.25
-0.255
-0.245
-0.245
-0.245
-0.245
-0.26
-0.255
-0.25
-0.235
-0.23
-0.245
-0.26
-0.27
-0.255
-0.235
-0.235
-0.245
-0.255
-0.265
-0.25
-0.24
-0.24
-0.245
-0.245
-0.25
-0.245
-0.23
-0.23
-0.235
-0.24
-0.245
-0.225
-0.225
-0.225
-0.23
-0.235
-0.24
-0.225
-0.215
-0.21
-0.225
-0.235
-0.24
-0.23
-0.23
-0.215
-0.225
-0.24
-0.23
-0.22
-0.21
-0.205
-0.21
-0.205
-0.21
-0.185
-0.17
-0.18
-0.19
-0.21
-0.185
-0.165
-0.16
-0.15
-0.165
-0.17
-0.175
-0.175
-0.16
-0.165
-0.19
-0.205
-0.215
-0.205
-0.2
-0.2
-0.215
-0.22
-0.22
-0.205
-0.205
-0.21
-0.23
-0.235
-0.245
-0.235
-0.22
-0.23
-0.235
-0.24
-0.24
-0.23
-0.23
-0.23
-0.235
-0.24
-0.245
-0.245
-0.225
-0.24
-0.24
-0.27
-0.3
-0.31
-0.33
-0.35
-0.41
-0.405
-0.345
-0.22
-0.07
0.055
0.145
0.245
0.375
0.5
0.605
0.6
0.38
0.015
-0.265
-0.335
-0.28
-0.255
-0.265
-0.27
-0.26
-0.245
-0.25
-0.27
-0.27
-0.275
-0.27
-0.265
-0.255
-0.26
-0.265
-0.27
-0.285
-0.26
-0.25
-0.26
-0.27
-0.275
-0.285
-0.26
-0.255
-0.26
-0.26
-0.285
-0.28
-0.265
-0.25
-0.26
-0.265
-0.27
-0.275
-0.265
-0.255
-0.26
-0.26
-0.265
-0.265
-0.255
-0.24
-0.255
-0.26
-0.27
-0.27
-0.265
-0.25
-0.255
-0.265
-0.28
-0.275
-0.26
-0.255
-0.255
-0.27
-0.27
-0.285
-0.28
-0.275
-0.27
-0.29
-0.29
-0.295
-0.3
-0.295
-0.305
-0.31
-0.32
-0.33
-0.325
-0.32
-0.335
-0.34
-0.37
-0.375
-0.365
-0.355
-0.365
-0.385
-0.4
-0.41
-0.39
-0.385
-0.4
-0.4
-0.415
-0.425
-0.41
-0.395
-0.395
-0.385
-0.405
-0.38
-0.355
-0.33
-0.32
-0.32
-0.305
-0.31
-0.28
-0.26
-0.255
-0.27
-0.27
-0.25
-0.235
-0.215
-0.22
-0.21
-0.22
-0.225
-0.205
-0.2
-0.205
-0.215
-0.23
-0.23
-0.21
-0.21
-0.2
-0.21
-0.225
-0.22
-0.215
-0.215
-0.205
-0.215
-0.225
-0.22
-0.225
-0.215
-0.22
-0.225
-0.24
-0.24
-0.225
-0.215
-0.225
-0.23
-0.24
-0.235
-0.23
-0.225
-0.235
-0.23
-0.255
-0.24
-0.24
-0.24
-0.24
-0.24
-0.26
-0.255
-0.255
-0.235
-0.235
-0.24
-0.255
-0.245
-0.26
-0.255
-0.245
-0.245
-0.26
-0.255
-0.25
-0.24
-0.24
-0.265
-0.26
-0.255
-0.25
-0.23
-0.255
-0.265
-0.28
-0.28
-0.275
-0.265
-0.255
-0.255
-0.265
-0.245
-0.25
-0.25
-0.255
-0.25
-0.255
-0.26
-0.24
-0.245
-0.255
-0.255
-0.26
-0.265
-0.25
-0.235
-0.24
-0.25
-0.26
-0.275
-0.265
-0.255
-0.25
-0.26
-0.255
-0.26
-0.245
-0.245
-0.25
-0.25
-0.255
-0.245
-0.225
-0.21
-0.21
-0.22
-0.225
-0.23
-0.21
-0.21
-0.21
-0.2
-0.215
-0.22
-0.195
-0.205
-0.2
-0.2
-0.225
-0.235
-0.235
-0.23
-0.23
-0.245
-0.25
-0.245
-0.26
-0.24
-0.25
-0.26
-0.275
-0.28
-0.265
-0.265
-0.265
-0.27
-0.29
-0.285
-0.28
-0.265
-0.275
-0.26
-0.265
-0.275
-0.265
-0.265
-0.27
-0.28
-0.285
-0.28
-0.275
-0.28
-0.29
-0.31
-0.34
-0.365
-0.385
-0.41
-0.435
-0.42
-0.39
-0.305
-0.205
-0.115
-0.025
0.02
0.105
0.225
0.36
0.41
0.32
0.045
-0.26
-0.435
-0.435
-0.37
-0.325
-0.325
-0.31
-0.32
-0.32
-0.315
-0.315
-0.315
-0.315
-0.32
-0.31
-0.305
-0.315
-0.32
-0.33
-0.33
-0.31
-0.29
-0.295
-0.305
-0.315
-0.32
-0.315
-0.295
-0.305
-0.31
-0.31
-0.315
-0.3
-0.3
-0.315
-0.31
-0.32
-0.325
-0.32
-0.305
-0.31
-0.32
-0.325
-0.32
-0.3
-0.29
-0.295
-0.305
-0.31
-0.305
-0.31
-0.29
-0.29
-0.29
-0.31
-0.31
-0.32
-0.31
-0.325
-0.315
-0.335
-0.33
-0.325
-0.31
-0.315
-0.315
-0.325
-0.335
-0.33
-0.325
-0.34
-0.345
-0.35
-0.345
-0.34
-0.335
-0.36
-0.375
-0.38
-0.39
-0.38
-0.365
-0.375
-0.4
-0.41
-0.405
-0.42
-0.41
-0.415
-0.425
-0.44
-0.45
-0.445
-0.43
-0.44
-0.445
-0.45
-0.45
-0.43
-0.41
-0.405
-0.41
-0.4
-0.38
-0.365
-0.34
-0.33
-0.33
-0.32
-0.3
-0.295
-0.28
-0.275
-0.28
-0.285
-0.3
-0.265
-0.265
-0.27
-0.28
-0.275
-0.28
-0.27
-0.27
-0.26
-0.265
-0.265
-0.275
-0.275
-0.27
-0.285
-0.285
-0.29
-0.285
-0.28
-0.27
-0.265
-0.275
-0.3
-0.3
-0.28
-0.27
-0.27
-0.29
-0.305
-0.295
-0.3
-0.285
-0.295
-0.305
-0.305
-0.31
-0.305
-0.3
-0.3
-0.305
-0.31
-0.305
-0.3
-0.285
-0.29
-0.305
-0.315
-0.315
-0.305
-0.285
-0.28
-0.295
-0.325
-0.34
-0.33
-0.305
-0.32
-0.315
-0.33
-0.325
-0.32
-0.32
-0.32
-0.315
-0.34
-0.335
-0.32
-0.295
-0.305
-0.305
-0.32
-0.315
-0.31
-0.315
-0.305
-0.305
-0.32
-0.32
-0.305
-0.305
-0.315
-0.32
-0.325
-0.335
-0.325
-0.31
-0.31
-0.32
-0.32
-0.335
-0.31
-0.315
-0.305
-0.33
-0.325
-0.325
-0.31
-0.295
-0.3
-0.295
-0.305
-0.315
-0.295
-0.29
-0.285
-0.28
-0.29
-0.275
-0.25
-0.24
-0.255
-0.27
-0.285
-0.285
-0.285
-0.27
-0.265
-0.27
-0.3
-0.3
-0.295
-0.3
-0.305
-0.31
-0.31
-0.32
-0.31
-0.305
-0.31
-0.31
-0.33
-0.325
-0.32
-0.31
-0.315
-0.335
-0.345
-0.325
-0.315
-0.31
-0.32
-0.33
-0.335
-0.335
-0.325
-0.32
-0.33
-0.325
-0.345
-0.36
-0.36
-0.365
-0.385
-0.425
-0.455
-0.465
-0.415
-0.31
-0.215
-0.105
-0.04
0.01
0.1
0.215
0.335
0.42
0.39
0.185
-0.13
-0.38
-0.48
-0.445
-0.41
-0.39
-0.35
-0.335
-0.34
-0.34
-0.35
-0.345
-0.335
-0.34
-0.33
-0.335
-0.33
-0.335
-0.33
-0.32
-0.325
-0.34
-0.34
-0.34
-0.335
-0.32
-0.315
-0.325
-0.33
-0.34
-0.33
-0.31
-0.32
-0.325
-0.33
-0.33
-0.32
-0.32
-0.315
-0.32
-0.33
-0.325
-0.325
-0.305
-0.305
-0.31
-0.32
-0.33
-0.315
-0.305
-0.3
-0.295
-0.31
-0.315
-0.31
-0.305
-0.3
-0.305
-0.315
-0.31
-0.3
-0.295
-0.305
-0.315
-0.31
-0.32
-0.305
-0.31
-0.29
-0.31
-0.32
-0.325
-0.315
-0.32
-0.315
-0.335
-0.345
-0.33
-0.335
-0.325
-0.345
-0.355
-0.37
-0.385
-0.365
-0.375
-0.375
-0.39
-0.41
-0.425
-0.425
-0.41
-0.425
-0.425
-0.435
-0.445
-0.445
-0.435
-0.44
-0.445
-0.44
-0.435
-0.43
-0.41
-0.4
-0.405
-0.405
-0.38
-0.345
-0.335
-0.315
-0.31
-0.305
-0.305
-0.28
-0.26
-0.26
-0.255
-0.25
-0.24
-0.24
-0.235
-0.23
-0.235
-0.245
-0.245
-0.235
-0.215
-0.22
-0.22
-0.24
-0.23
-0.225
-0.225
-0.22
-0.235
-0.245
-0.225
-0.225
-0.23
-0.23
-0.24
-0.245
-0.25
-0.24
-0.22
-0.22
-0.23
-0.255
-0.245
-0.245
-0.235
-0.235
-0.225
-0.24
-0.25
-0.245
-0.235
-0.235
-0.25
-0.245
-0.25
-0.245
-0.25
-0.245
-0.26
-0.26
-0.27
-0.255
-0.24
-0.245
-0.25
-0.27
-0.275
-0.27
-0.25
-0.255
-0.245
-0.265
-0.265
-0.25
-0.255
-0.245
-0.255
-0.265
-0.265
-0.245
-0.245
-0.245
-0.26
-0.255
-0.265
-0.255
-0.24
-0.245
-0.25
-0.245
-0.255
-0.25
-0.24
-0.245
-0.26
-0.255
-0.26
-0.25
-0.23
-0.235
-0.245
-0.25
-0.255
-0.235
-0.25
-0.225
-0.245
-0.25
-0.255
-0.235
-0.225
-0.24
-0.245
-0.255
-0.255
-0.235
-0.23
-0.235
-0.255
-0.255
-0.26
-0.245
-0.225
-0.225
-0.23
-0.235
-0.235
-0.225
-0.2
-0.21
-0.21
-0.215
-0.205
-0.2
-0.19
-0.19
-0.195
-0.195
-0.2
-0.175
-0.165
-0.17
-0.175
-0.18
-0.185
-0.18
-0.18
-0.175
-0.195
-0.21
-0.215
-0.21
-0.215
-0.22
-0.235
-0.24
-0.24
-0.235
-0.215
-0.23
-0.235
-0.245
-0.255
-0.245
-0.23
-0.225
-0.245
-0.24
-0.24
-0.245
-0.235
-0.245
-0.245
-0.265
-0.265
-0.245
-0.235
-0.235
-0.25
-0.27
-0.27
-0.29
-0.3
-0.33
-0.33
-0.375
-0.39
-0.41
-0.41
-0.385
-0.305
-0.2
-0.075
0.05
0.185
0.295
0.425
0.525
0.65
0.73
0.66
0.4
0.04
-0.23
-0.31
-0.285
-0.275
-0.28
-0.28
-0.28
-0.29
-0.29
-0.285
-0.285
-0.295
-0.305
-0.305
-0.31
-0.3
-0.285
-0.305
-0.32
-0.32
-0.305
-0.305
-0.305
-0.305
-0.31
-0.31
-0.315
-0.305
-0.31
-0.315
-0.325
-0.325
-0.305
-0.295
-0.29
-0.29
-0.315
-0.315
-0.315
-0.295
-0.3
-0.305
-0.31
-0.3
-0.295
-0.29
-0.3
-0.305
-0.315
-0.31
-0.31
-0.295
-0.29
-0.305
-0.31
-0.305
-0.305
-0.305
-0.31
-0.31
-0.32
-0.33
-0.32
-0.31
-0.325
-0.325
-0.34
-0.35
-0.345
-0.325
-0.335
-0.335
-0.355
-0.35
-0.36
-0.35
-0.365
-0.36
-0.37
-0.385
-0.385
-0.375
-0.39
-0.4
-0.42
-0.43
-0.42
-0.425
-0.425
-0.43
-0.45
-0.46
-0.455
-0.455
-0.465
-0.47
-0.475
-0.47
-0.47
-0.455
-0.455
-0.465
-0.47
-0.465
-0.435
-0.42
-0.4
-0.39
-0.395
-0.38
-0.355
-0.345
-0.325
-0.31
-0.31
-0.31
-0.285
-0.28
-0.275
-0.28
-0.285
-0.28
-0.255
-0.245
-0.24
-0.26
-0.27
-0.27
-0.25
-0.245
-0.255
-0.26
-0.26
-0.265
-0.245
-0.24
-0.245
-0.245
-0.26
-0.255
-0.245
-0.245
-0.24
-0.25
-0.255
-0.26
-0.255
-0.245
-0.255
-0.265
-0.265
-0.275
-0.26
-0.255
-0.265
-0.265
-0.28
-0.28
-0.275
-0.275
-0.275
-0.275
-0.285
-0.3
-0.285
-0.27
-0.27
-0.28
-0.29
-0.295
-0.3
-0.29
-0.295
-0.3
-0.31
-0.31
-0.3
-0.29
-0.295
-0.31
-0.31
-0.315
-0.31
-0.28
-0.295
-0.29
-0.3
-0.3
-0.3
-0.29
-0.295
-0.295
-0.305
-0.305
-0.295
-0.285
-0.29
-0.3
-0.3
-0.3
-0.29
-0.285
-0.285
-0.29
-0.305
-0.3
-0.3
-0.28
-0.285
-0.29
-0.29
-0.29
-0.285
-0.275
-0.285
-0.29
-0.305
-0.3
-0.295
-0.275
-0.285
-0.295
-0.31
-0.305
-0.31
-0.285
-0.295
-0.28
-0.29
-0.295
-0.285
-0.27
-0.265
-0.26
-0.27
-0.265
-0.255
-0.245
-0.25
-0.245
-0.245
-0.24
-0.23
-0.21
-0.225
-0.225
-0.24
-0.245
-0.235
-0.22
-0.225
-0.23
-0.245
-0.255
-0.26
-0.245
-0.25
-0.255
-0.27
-0.28
-0.27
-0.265
-0.275
-0.275
-0.28
-0.3
-0.29
-0.28
-0.275
-0.27
-0.295
-0.295
-0.29
-0.275
-0.285
-0.285
-0.29
-0.295
-0.29
-0.28
-0.285
-0.295
-0.3
-0.32
-0.33
-0.355
-0.365
-0.41
-0.45
-0.465
-0.405
-0.3
-0.18
-0.055
0.03
0.135
0.245
0.36
0.475
0.56
0.57
0.44
0.18
-0.105
-0.33
-0.435
-0.45
-0.415
-0.37
-0.365
-0.355
-0.34
-0.33
-0.34
-0.34
-0.335
-0.335
-0.335
-0.34
-0.355
-0.335
-0.315
-0.325
-0.335
-0.345
-0.35
-0.34
-0.335
-0.32
-0.33
-0.34
-0.34
-0.325
-0.33
-0.33
-0.335
-0.335
-0.33
-0.325
-0.32
-0.31
-0.33
-0.335
-0.33
-0.32
-0.31
-0.31
-0.315
-0.33
-0.32
-0.32
-0.32
-0.305
-0.305
-0.325
-0.31
-0.305
-0.3
-0.295
-0.32
-0.33
-0.325
-0.325
-0.32
-0.32
-0.32
-0.33
-0.335
-0.335
-0.325
-0.335
-0.335
-0.34
-0.35
-0.34
-0.34
-0.35
-0.355
-0.365
-0.375
-0.375
-0.355
-0.37
-0.37
-0.39
-0.405
-0.41
-0.4
-0.41
-0.41
-0.41
-0.43
-0.42
-0.425
-0.425
-0.425
-0.435
-0.45
-0.44
-0.43
-0.43
-0.45
-0.45
-0.45
-0.445
-0.415
-0.415
-0.42
-0.425
-0.42
-0.405
-0.385
-0.385
-0.375
-0.365
-0.35
-0.335
-0.315
-0.295
-0.295
-0.295
-0.305
-0.28
-0.265
-0.27
-0.26
-0.275
-0.275
-0.265
-0.26
-0.26
-0.26
-0.255
-0.26
-0.25
-0.265
-0.265
-0.265
-0.27
-0.27
-0.25
-0.255
-0.25
-0.24
-0.265
-0.27
-0.27
-0.26
-0.26
-0.26
-0.27
-0.28
-0.275
-0.27
-0.265
-0.275
-0.285
-0.29
-0.27
-0.26
-0.275
-0.28
-0.29
-0.31
-0.295
-0.275
-0.29
-0.28
-0.285
-0.29
-0.28
-0.275
-0.285
-0.295
-0.305
-0.305
-0.285
-0.275
-0.285
-0.29
-0.31
-0.32
-0.305
-0.285
-0.28
-0.3
-0.3
-0.305
-0.31
-0.295
-0.295
-0.295
-0.305
-0.31
-0.3
-0.285
-0.29
-0.305
-0.305
-0.305
-0.29
-0.28
-0.295
-0.285
-0.305
-0.3
-0.295
-0.3
-0.3
-0.295
-0.295
-0.305
-0.29
-0.29
-0.295
-0.295
-0.31
-0.31
-0.3
-0.29
-0.29
-0.285
-0.305
-0.32
-0.295
-0.28
-0.275
-0.27
-0.28
-0.275
-0.27
-0.26
-0.265
-0.26
-0.26
-0.255
-0.255
-0.245
-0.24
-0.25
-0.25
-0.25
-0.25
-0.23
-0.24
-0.24
-0.245
-0.26
-0.245
-0.25
-0.26
-0.265
-0.285
-0.29
-0.28
-0.27
-0.28
-0.29
-0.3
-0.3
-0.29
-0.28
-0.285
-0.285
-0.305
-0.315
-0.295
-0.295
-0.3
-0.295
-0.305
-0.31
-0.305
-0.305
-0.3
-0.29
-0.305
-0.305
-0.3
-0.295
-0.3
-0.31
-0.335
-0.36
-0.37
-0.38
-0.405
-0.41
-0.38
-0.295
-0.18
-0.095
-0.015
0.05
0.15
0.255
0.34
0.345
0.175
-0.115
-0.355
-0.455
-0.425
-0.37
-0.355
-0.345
-0.345
-0.345
-0.34
-0.335
-0.345
-0.335
-0.34
-0.345
-0.335
-0.32
-0.33
-0.33
-0.35
-0.36
-0.35
-0.33
-0.34
-0.34
-0.35
-0.355
-0.35
-0.33
-0.335
-0.335
-0.34
-0.345
-0.325
-0.32
-0.315
-0.325
-0.335
-0.345
-0.34
-0.335
-0.315
-0.325
-0.33
-0.345
-0.335
-0.32
-0.32
-0.32
-0.345
-0.345
-0.325
-0.315
-0.32
-0.32
-0.345
-0.34
-0.335
-0.325
-0.325
-0.33
-0.34
-0.345
-0.335
-0.33
-0.335
-0.34
-0.335
-0.335
-0.335
-0.34
-0.345
-0.345
-0.36
-0.37
-0.36
-0.35
-0.36
-0.37
-0.395
-0.4
-0.39
-0.4
-0.4
-0.41
-0.415
-0.425
-0.425
-0.43
-0.44
-0.44
-0.455
-0.475
-0.46
-0.445
-0.455
-0.46
-0.475
-0.48
-0.465
-0.445
-0.43
-0.415
-0.42
-0.405
-0.395
-0.375
-0.37
-0.345
-0.35
-0.34
-0.33
-0.31
-0.305
-0.305
-0.305
-0.285
-0.285
-0.26
-0.27
-0.285
-0.29
-0.305
-0.295
-0.29
-0.275
-0.265
-0.29
-0.29
-0.28
-0.27
-0.265
-0.275
-0.29
-0.29
-0.285
-0.265
-0.28
-0.28
-0.3
-0.3
-0.285
-0.275
-0.285
-0.3
-0.3
-0.3
-0.285
-0.275
-0.29
-0.3
-0.31
-0.305
-0.28
-0.275
-0.285
-0.295
-0.3
-0.305
-0.29
-0.295
-0.305
-0.31
-0.325
-0.315
-0.305
-0.29
-0.3
-0.3
-0.305
-0.32
-0.31
-0.3
-0.3
-0.315
-0.315
-0.32
-0.305
-0.295
-0.305
-0.31
-0.32
-0.315
-0.305
-0.29
-0.295
-0.295
-0.31
-0.32
-0.31
-0.3
-0.285
-0.295
-0.305
-0.315
-0.295
-0.295
-0.285
-0.28
-0.3
-0.305
-0.3
-0.29
-0.295
-0.295
-0.305
-0.31
-0.295
-0.285
-0.3
-0.3
-0.295
-0.305
-0.29
-0.285
-0.285
-0.27
-0.28
-0.28
-0.26
-0.255
-0.26
-0.255
-0.265
-0.255
-0.25
-0.245
-0.245
-0.255
-0.255
-0.265
-0.25
-0.24
-0.235
-0.225
-0.245
-0.24
-0.245
-0.24
-0.25
-0.245
-0.26
-0.265
-0.25
-0.245
-0.26
-0.27
-0.285
-0.29
-0.285
-0.27
-0.27
-0.28
-0.29
-0.295
-0.285
-0.275
-0.27
-0.275
-0.3
-0.295
-0.275
-0.28
-0.285
-0.28
-0.29
-0.29
-0.285
-0.28
-0.27
-0.285
-0.31
-0.33
-0.345
-0.345
-0.365
-0.395
-0.39
-0.33
-0.21
-0.075
0.01
0.075
0.155
0.255
0.385
0.49
0.475
0.28
-0.04
-0.325
-0.42
-0.39
-0.35
-0.335
-0.33
-0.315
-0.29
-0.28
-0.285
-0.295
-0.305
-0.29
-0.295
-0.295
-0.285
-0.295
-0.305
-0.295
-0.285
-0.265
-0.28
-0.28
-0.3
-0.3
-0.29
-0.275
-0.255
-0.27
-0.285
-0.285
-0.285
-0.28
-0.27
-0.27
-0.285
-0.285
-0.275
-0.27
-0.265
-0.28
-0.275
-0.285
-0.27
-0.26
-0.26
-0.27
-0.295
-0.29
-0.285
-0.265
-0.255
-0.27
-0.28
-0.285
-0.285
-0.27
-0.27
-0.275
-0.275
-0.275
-0.275
-0.27
-0.265
-0.285
-0.295
-0.295
-0.295
-0.29
-0.285
-0.3
-0.3
-0.305
-0.3
-0.295
-0.31
-0.315
-0.33
-0.33
-0.34
-0.33
-0.33
-0.355
-0.36
-0.37
-0.38
-0.365
-0.38
-0.38
-0.4
-0.41
-0.405
-0.4
-0.41
-0.405
-0.42
-0.43
-0.41
-0.405
-0.41
-0.395
-0.405
-0.395
-0.36
-0.34
-0.33
-0.32
-0.315
-0.3
-0.285
-0.26
-0.255
-0.235
-0.23
-0.245
-0.22
-0.21
-0.205
-0.195
-0.2
-0.215
-0.185
-0.18
-0.185
-0.195
-0.21
-0.21
-0.19
-0.18
-0.18
-0.195
-0.195
-0.19
-0.185
-0.18
-0.18
-0.185
-0.205
-0.205
-0.2
-0.185
-0.18
-0.195
-0.2
-0.2
-0.195
-0.185
-0.195
-0.2
-0.215
-0.21
-0.2
-0.2
-0.195
-0.205
-0.23
-0.215
-0.205
-0.205
-0.195
-0.205
-0.205
-0.225
-0.21
-0.205
-0.2
-0.205
-0.225
-0.235
-0.22
-0.205
-0.215
-0.21
-0.215
-0.225
-0.22
-0.215
-0.22
-0.215
-0.22
-0.225
-0.22
-0.215
-0.215
-0.22
-0.24
-0.23
-0.215
-0.21
-0.22
-0.22
-0.235
-0.235
-0.225
-0.21
-0.215
-0.205
-0.215
-0.235
-0.22
-0.215
-0.21
-0.21
-0.23
-0.225
-0.215
-0.2
-0.2
-0.215
-0.225
-0.22
-0.21
-0.205
-0.21
-0.22
-0.215
-0.22
-0.215
-0.205
-0.21
-0.21
-0.215
-0.22
-0.21
-0.205
-0.205
-0.205
-0.22
-0.205
-0.195
-0.185
-0.185
-0.17
-0.175
-0.18
-0.165
-0.15
-0.155
-0.155
-0.16
-0.155
-0.145
-0.13
-0.125
-0.14
-0.15
-0.145
-0.14
-0.14
-0.155
-0.155
-0.17
-0.17
-0.155
-0.165
-0.165
-0.165
-0.185
-0.185
-0.205
-0.19
-0.19
-0.19
-0.205
-0.2
-0.19
-0.185
-0.185
-0.195
-0.21
-0.2
-0.205
-0.19
-0.2
-0.2
-0.21
-0.22
-0.205
-0.185
-0.195
-0.2
-0.24
-0.265
-0.29
-0.305
-0.325
-0.355
-0.34
-0.235
-0.095
0.04
0.155
0.27
0.37
0.505
0.65
0.79
0.85
0.77
0.47
0.075
-0.195
-0.245
-0.215
-0.22
-0.24
-0.23
-0.235
-0.225
-0.23
-0.23
-0.26
-0.255
-0.25
-0.24
-0.24
-0.24
-0.255
-0.25
-0.245
-0.235
-0.23
-0.25
-0.26
-0.26
-0.25
-0.235
-0.235
-0.245
-0.26
-0.26
-0.245
-0.23
-0.23
-0.245
-0.235
-0.255
-0.245
-0.23
-0.235
-0.24
-0.25
-0.25
-0.23
-0.24
-0.24
-0.245
-0.255
-0.245
-0.245
-0.235
-0.23
-0.24
-0.26
-0.26
-0.26
-0.25
-0.245
-0.255
-0.26
-0.285
-0.285
-0.275
-0.27
-0.28
-0.29
-0.295
-0.29
-0.3
-0.315
-0.305
-0.32
-0.32
-0.325
-0.32
-0.335
-0.35
-0.36
-0.365
-0.365
-0.36
-0.365
-0.375
-0.395
-0.39
-0.39
-0.38
-0.385
-0.375
-0.39
-0.395
-0.385
-0.36
-0.35
-0.36
-0.35
-0.34
-0.325
-0.29
-0.285
-0.28
-0.28
-0.275
-0.26
-0.225
-0.22
-0.21
-0.215
-0.21
-0.2
-0.185
-0.175
-0.175
-0.185
-0.18
-0.18
-0.165
-0.17
-0.16
-0.185
-0.18
-0.175
-0.165
-0.165
-0.175
-0.185
-0.19
-0.17
-0.17
-0.175
-0.185
-0.205
-0.205
-0.19
-0.185
-0.18
-0.19
-0.195
-0.185
-0.2
-0.18
-0.19
-0.205
-0.205
-0.195
-0.205
-0.195
-0.195
-0.21
-0.215
-0.215
-0.205
-0.195
-0.205
-0.205
-0.22
-0.22
-0.205
-0.2
-0.2
-0.205
-0.22
-0.22
-0.22
-0.2
-0.215
-0.205
-0.215
-0.22
-0.205
-0.195
-0.2
-0.205
-0.22
-0.225
-0.225
-0.2
-0.195
-0.205
-0.225
-0.22
-0.215
-0.2
-0.195
-0.21
-0.22
-0.215
-0.205
-0.19
-0.2
-0.205
-0.21
-0.21
-0.195
-0.19
-0.195
-0.195
-0.21
-0.21
-0.2
-0.195
-0.185
-0.19
-0.205
-0.21
-0.205
-0.19
-0.19
-0.195
-0.205
-0.195
-0.185
-0.175
-0.175
-0.17
-0.175
-0.175
-0.16
-0.14
-0.15
-0.155
-0.165
-0.155
-0.14
-0.12
-0.115
-0.125
-0.145
-0.15
-0.13
-0.12
-0.13
-0.15
-0.15
-0.16
-0.16
-0.155
-0.15
-0.17
-0.17
-0.185
-0.16
-0.145
-0.16
-0.16
-0.18
-0.18
-0.18
-0.16
-0.18
-0.19
-0.195
-0.2
-0.175
-0.175
-0.175
-0.19
-0.205
-0.195
-0.19
-0.185
-0.175
-0.18
-0.195
-0.19
-0.2
-0.185
-0.19
-0.22
-0.255
-0.29
-0.31
-0.335
-0.355
-0.275
-0.165
-0.03
0.105
0.22
0.345
0.48
0.59
0.66
0.545
0.24
-0.105
-0.275
-0.275
-0.23
-0.22
-0.205
-0.205
-0.205
-0.215
-0.225
-0.23
-0.21
-0.205
-0.215
-0.23
-0.235
-0.23
-0.215
-0.215
-0.22
-0.22
-0.225
-0.22
-0.215
-0.21
-0.22
-0.22
-0.22
-0.21
-0.195
-0.215
-0.205
-0.21
-0.22
-0.225
-0.21
-0.205
-0.205
-0.21
-0.21
-0.2
-0.2
-0.2
-0.21
-0.22
-0.23
-0.2
-0.195
-0.2
-0.215
-0.22
-0.225
-0.215
-0.21
-0.21
-0.21
-0.23
-0.235
-0.23
-0.215
-0.225
-0.225
-0.255
-0.265
-0.26
-0.25
-0.24
-0.245
-0.265
-0.28
-0.28
-0.275
-0.295
-0.3
-0.31
-0.315
-0.31
-0.305
-0.325
-0.335
-0.35
-0.345
-0.345
-0.335
-0.34
-0.35
-0.36
-0.355
-0.36
-0.34
-0.34
-0.345
-0.345
-0.35
-0.33
-0.31
-0.315
-0.315
-0.315
-0.305
-0.305
-0.28
-0.265
-0.255
-0.25
-0.245
-0.235
-0.22
-0.205
-0.2
-0.205
-0.2
-0.19
-0.185
-0.195
-0.195
-0.205
-0.2
-0.19
-0.18
-0.185
-0.195
-0.195
-0.205
-0.185
-0.185
-0.18
-0.19
-0.21
-0.21
-0.205
-0.195
-0.2
-0.2
-0.22
-0.21
-0.215
-0.19
-0.195
-0.2
-0.215
-0.215
-0.22
-0.21
-0.21
-0.215
-0.225
-0.23
-0.21
-0.2
-0.205
-0.21
-0.22
-0.24
-0.245
-0.225
-0.225
-0.23
-0.245
-0.245
-0.23
-0.225
-0.235
-0.235
-0.245
-0.255
-0.245
-0.22
-0.235
-0.24
-0.25
-0.25
-0.24
-0.24
-0.24
-0.235
-0.245
-0.26
-0.245
-0.23
-0.225
-0.235
-0.255
-0.255
-0.245
-0.24
-0.24
-0.235
-0.25
-0.26
-0.245
-0.235
-0.245
-0.24
-0.24
-0.255
-0.24
-0.24
-0.245
-0.25
-0.26
-0.26
-0.255
-0.245
-0.245
-0.24
-0.245
-0.255
-0.235
-0.235
-0.23
-0.245
-0.24
-0.245
-0.23
-0.21
-0.215
-0.21
-0.22
-0.23
-0.23
-0.205
-0.2
-0.185
-0.195
-0.2
-0.2
-0.185
-0.19
-0.205
-0.21
-0.225
-0.23
-0.22
-0.225
-0.255
-0.25
-0.265
-0.255
-0.25
-0.245
-0.25
-0.28
-0.27
-0.27
-0.25
-0.255
-0.26
-0.27
-0.265
-0.255
-0.265
-0.255
-0.28
-0.285
-0.295
-0.285
-0.285
-0.275
-0.275
-0.285
-0.29
-0.295
-0.305
-0.315
-0.345
-0.38
-0.425
-0.425
-0.4
-0.315
-0.215
-0.14
-0.075
-0.03
-0.025
0.005
0.05
0.14
0.22
0.345
0.475
0.48
0.295
-0.03
-0.335
-0.455
-0.425
-0.385
-0.345
-0.34
-0.335
-0.325
-0.32
-0.325
-0.33
-0.345
-0.34
-0.325
-0.31
-0.32
-0.33
-0.35
-0.35
-0.33
-0.305
-0.31
-0.31
-0.325
-0.335
-0.325
-0.32
-0.315
-0.33
-0.325
-0.34
-0.325
-0.32
-0.31
-0.32
-0.325
-0.34
-0.325
-0.315
-0.325
-0.325
-0.34
-0.325
-0.315
-0.3
-0.3
-0.315
-0.32
-0.335
-0.325
-0.32
-0.31
-0.32
-0.325
-0.325
-0.325
-0.31
-0.32
-0.34
-0.355
-0.36
-0.355
-0.345
-0.345
-0.35
-0.365
-0.37
-0.355
-0.355
-0.355
-0.36
-0.365
-0.38
-0.385
-0.39
-0.395
-0.4
-0.425
-0.42
-0.41
-0.43
-0.43
-0.455
-0.455
-0.465
-0.455
-0.45
-0.46
-0.475
-0.48
-0.515
-0.485
-0.465
-0.47
-0.465
-0.475
-0.475
-0.46
-0.425
-0.415
-0.42
-0.41
-0.385
-0.365
-0.36
-0.345
-0.335
-0.34
-0.34
-0.33
-0.315
-0.31
-0.3
-0.305
-0.305
-0.3
-0.29
-0.3
-0.305
-0.305
-0.3
-0.285
-0.29
-0.295
-0.29
-0.31
-0.31
-0.3
-0.29
-0.29
-0.305
-0.31
-0.32
-0.32
-0.31
-0.31
-0.295
-0.305
-0.325
-0.315
-0.305
-0.31
-0.305
-0.315
-0.315
-0.32
-0.32
-0.31
-0.325
-0.33
-0.32
-0.325
-0.31
-0.31
-0.315
-0.335
-0.345
-0.34
-0.325
-0.325
-0.32
-0.33
-0.35
-0.34
-0.325
-0.335
-0.325
-0.34
-0.335
-0.34
-0.335
-0.325
-0.335
-0.345
-0.34
-0.325
-0.32
-0.31
-0.325
-0.325
-0.33
-0.325
-0.325
-0.315
-0.315
-0.33
-0.33
-0.325
-0.315
-0.305
-0.325
-0.32
-0.34
-0.33
-0.31
-0.32
-0.32
-0.33
-0.34
-0.335
-0.325
-0.335
-0.335
-0.33
-0.335
-0.32
-0.305
-0.325
-0.32
-0.335
-0.335
-0.315
-0.315
-0.31
-0.31
-0.32
-0.325
-0.315
-0.29
-0.29
-0.285
-0.295
-0.29
-0.28
-0.265
-0.265
-0.275
-0.275
-0.285
-0.26
-0.255
-0.24
-0.25
-0.265
-0.255
-0.255
-0.245
-0.245
-0.255
-0.28
-0.285
-0.29
-0.265
-0.27
-0.27
-0.285
-0.295
-0.285
-0.29
-0.295
-0.295
-0.31
-0.31
-0.29
-0.285
-0.285
-0.29
-0.305
-0.3
-0.3
-0.295
-0.3
-0.295
-0.305
-0.29
-0.295
-0.285
-0.285
-0.305
-0.31
-0.31
-0.31
-0.295
-0.295
-0.285
-0.315
-0.345
-0.355
-0.37
-0.395
-0.425
-0.43
-0.375
-0.26
-0.14
-0.03
0.04
0.115
0.225
0.35
0.48
0.52
0.395
0.1
-0.23
-0.425
-0.445
-0.38
-0.355
-0.36
-0.335
-0.335
-0.32
-0.325
-0.33
-0.33
-0.335
-0.335
-0.315
-0.325
-0.33
-0.34
-0.345
-0.34
-0.325
-0.315
-0.33
-0.34
-0.335
-0.33
-0.32
-0.325
-0.32
-0.33
-0.335
-0.325
-0.31
-0.315
-0.31
-0.325
-0.33
-0.33
-0.325
-0.32
-0.32
-0.335
-0.32
-0.325
-0.315
-0.32
-0.325
-0.33
-0.33
-0.315
-0.31
-0.32
-0.325
-0.325
-0.34
-0.315
-0.31
-0.31
-0.32
-0.34
-0.33
-0.33
-0.325
-0.32
-0.325
-0.335
-0.35
-0.335
-0.34
-0.34
-0.345
-0.365
-0.365
-0.355
-0.37
-0.36
-0.38
-0.39
-0.4
-0.41
-0.405
-0.41
-0.415
-0.43
-0.44
-0.45
-0.43
-0.435
-0.445
-0.46
-0.47
-0.475
-0.465
-0.475
-0.47
-0.465
-0.475
-0.455
-0.45
-0.435
-0.445
-0.46
-0.46
-0.445
-0.42
-0.415
-0.4
-0.41
-0.39
-0.365
-0.345
-0.335
-0.33
-0.33
-0.32
-0.285
-0.27
-0.27
-0.28
-0.27
-0.27
-0.255
-0.25
-0.245
-0.24
-0.255
-0.255
-0.255
-0.25
-0.245
-0.245
-0.255
-0.25
-0.25
-0.25
-0.255
-0.25
-0.27
-0.255
-0.25
-0.245
-0.245
-0.265
-0.26
-0.275
-0.26
-0.25
-0.245
-0.25
-0.265
-0.275
-0.265
-0.26
-0.25
-0.26
-0.27
-0.275
-0.265
-0.26
-0.27
-0.26
-0.28
-0.28
-0.28
-0.255
-0.26
-0.275
-0.295
-0.285
-0.285
-0.28
-0.275
-0.26
-0.275
-0.285
-0.28
-0.275
-0.28
-0.275
-0.29
-0.29
-0.275
-0.265
-0.28
-0.28
-0.295
-0.29
-0.28
-0.275
-0.285
-0.27
-0.29
-0.29
-0.28
-0.27
-0.27
-0.27
-0.275
-0.275
-0.27
-0.265
-0.265
-0.27
-0.28
-0.28
-0.265
-0.265
-0.26
-0.265
-0.27
-0.285
-0.26
-0.25
-0.255
-0.25
-0.27
-0.27
-0.27
-0.25
-0.26
-0.265
-0.27
-0.27
-0.26
-0.255
-0.245
-0.255
-0.265
-0.27
-0.265
-0.25
-0.26
-0.26
-0.27
-0.26
-0.25
-0.23
-0.215
-0.23
-0.24
-0.25
-0.23
-0.215
-0.205
-0.195
-0.205
-0.22
-0.22
-0.21
-0.205
-0.205
-0.23
-0.225
-0.235
-0.22
-0.23
-0.23
-0.25
-0.25
-0.245
-0.245
-0.25
-0.26
-0.265
-0.275
-0.27
-0.255
-0.25
-0.265
-0.27
-0.28
-0.28
-0.265
-0.265
-0.265
-0.275
-0.27
-0.265
-0.26
-0.26
-0.27
-0.285
-0.28
-0.275
-0.27
-0.3
-0.33
-0.365
-0.375
-0.405
-0.42
-0.41
-0.365
-0.275
-0.15
-0.02
0.09
0.205
0.325
0.43
0.57
0.68
0.715
0.59
0.295
-0.05
-0.26
-0.33
-0.305
-0.29
-0.305
-0.32
-0.325
-0.305
-0.275
-0.27
-0.275
-0.295
-0.315
-0.315
-0.31
-0.315
-0.325
-0.325
-0.33
-0.325
-0.32
-0.32
-0.315
-0.33
-0.345
-0.315
-0.315
-0.305
-0.315
-0.325
-0.325
-0.325
-0.325
-0.31
-0.31
-0.325
-0.32
-0.32
-0.31
-0.31
-0.32
-0.32
-0.32
-0.31
-0.305
-0.295
-0.32
-0.315
-0.32
-0.315
-0.305
-0.315
-0.31
-0.33
-0.335
-0.32
-0.315
-0.305
-0.31
-0.325
-0.325
-0.32
-0.32
-0.33
-0.335
-0.335
-0.345
-0.335
-0.33
-0.33
-0.335
-0.36
-0.37
-0.37
-0.36
-0.355
-0.365
-0.375
-0.385
-0.39
-0.39
-0.385
-0.405
-0.42
-0.415
-0.42
-0.415
-0.43
-0.425
-0.45
-0.45
-0.45
-0.44
-0.45
-0.455
-0.455
-0.46
-0.465
-0.45
-0.45
-0.465
-0.465
-0.47
-0.445
-0.435
-0.43
-0.425
-0.425
-0.425
-0.405
-0.385
-0.37
-0.35
-0.35
-0.33
-0.315
-0.305
-0.3
-0.29
-0.285
-0.28
-0.26
-0.255
-0.245
-0.255
-0.275
-0.27
-0.25
-0.24
-0.24
-0.24
-0.265
-0.26
-0.265
-0.25
-0.245
-0.25
-0.26
-0.26
-0.25
-0.245
-0.25
-0.25
-0.255
-0.265
-0.25
-0.25
-0.25
-0.255
-0.27
-0.265
-0.255
-0.24
-0.245
-0.255
-0.26
-0.26
-0.27
-0.26
-0.245
-0.265
-0.265
-0.27
-0.25
-0.25
-0.25
-0.26
-0.27
-0.275
-0.255
-0.255
-0.26
-0.265
-0.265
-0.27
-0.27
-0.265
-0.255
-0.255
-0.28
-0.275
-0.27
-0.26
-0.265
-0.265
-0.285
-0.28
-0.265
-0.255
-0.25
-0.245
-0.26
-0.27
-0.275
-0.265
-0.265
-0.265
-0.275
-0.27
-0.265
-0.26
-0.25
-0.26
-0.26
-0.255
-0.255
-0.245
-0.24
-0.24
-0.26
-0.265
-0.245
-0.24
-0.24
-0.235
-0.25
-0.245
-0.245
-0.23
-0.23
-0.23
-0.245
-0.24
-0.24
-0.22
-0.22
-0.23
-0.245
-0.24
-0.245
-0.235
-0.23
-0.245
-0.25
-0.235
-0.23
-0.215
-0.22
-0.22
-0.225
-0.225
-0.205
-0.195
-0.195
-0.195
-0.2
-0.21
-0.215
-0.19
-0.195
-0.185
-0.19
-0.18
-0.175
-0.175
-0.175
-0.17
-0.185
-0.185
-0.185
-0.18
-0.175
-0.195
-0.22
-0.225
-0.21
-0.21
-0.21
-0.215
-0.225
-0.225
-0.23
-0.22
-0.225
-0.215
-0.235
-0.24
-0.235
-0.225
-0.22
-0.235
-0.23
-0.24
-0.23
-0.225
-0.21
-0.22
-0.24
-0.235
-0.235
-0.235
-0.24
-0.275
-0.31
-0.33
-0.355
-0.37
-0.41
-0.435
-0.43
-0.395
-0.35
-0.26
-0.19
-0.105
-0.055
0.01
0.095
0.19
0.295
0.4
0.51
0.61
0.61
0.435
0.1
-0.2
-0.315
-0.305
-0.26
-0.255
-0.25
-0.255
-0.25
-0.255
-0.265
-0.25
-0.26
-0.265
-0.27
-0.26
-0.255
-0.25
-0.26
-0.26
-0.27
-0.255
-0.25
-0.24
-0.255
-0.255
-0.26
-0.265
-0.26
-0.25
-0.245
-0.245
-0.245
-0.245
-0.245
-0.24
-0.25
-0.25
-0.26
-0.265
-0.255
-0.225
-0.24
-0.235
-0.26
-0.265
-0.265
-0.24
-0.24
-0.24
-0.245
-0.26
-0.255
-0.245
-0.255
-0.26
-0.265
-0.27
-0.25
-0.24
-0.25
-0.255
-0.27
-0.275
-0.265
-0.265
-0.26
-0.26
-0.275
-0.27
-0.27
-0.26
-0.26
-0.275
-0.285
-0.29
-0.3
-0.285
-0.28
-0.29
-0.305
-0.325
-0.315
-0.315
-0.32
-0.325
-0.34
-0.34
-0.345
-0.34
-0.34
-0.355
-0.37
-0.375
-0.375
-0.37
-0.37
-0.375
-0.395
-0.405
-0.385
-0.38
-0.375
-0.375
-0.38
-0.375
-0.365
-0.35
-0.345
-0.325
-0.325
-0.315
-0.3
-0.27
-0.26
-0.26
-0.275
-0.26
-0.24
-0.22
-0.215
-0.22
-0.225
-0.23
-0.22
-0.21
-0.21
-0.205
-0.225
-0.22
-0.22
-0.215
-0.22
-0.21
-0.22
-0.23
-0.21
-0.21
-0.225
-0.22
-0.215
-0.23
-0.22
-0.215
-0.21
-0.22
-0.23
-0.24
-0.23
-0.215
-0.215
-0.215
-0.22
-0.215
-0.215
-0.2
-0.21
-0.22
-0.225
-0.23
-0.225
-0.21
-0.205
-0.21
-0.235
-0.23
-0.22
-0.2
-0.205
-0.23
-0.23
-0.215
-0.225
-0.21
-0.225
-0.225
-0.22
-0.235
-0.225
-0.215
-0.215
-0.21
-0.23
-0.225
-0.225
-0.205
-0.205
-0.22
-0.23
-0.235
-0.23
-0.21
-0.205
-0.2
-0.215
-0.22
-0.215
-0.21
-0.215
-0.215
-0.23
-0.24
-0.235
-0.22
-0.215
-0.22
-0.225
-0.225
-0.215
-0.215
-0.215
-0.225
-0.235
-0.23
-0.225
-0.215
-0.225
-0.23
-0.225
-0.245
-0.23
-0.2
-0.205
-0.215
-0.225
-0.24
-0.22
-0.205
-0.195
-0.19
-0.185
-0.205
-0.2
-0.18
-0.18
-0.175
-0.19
-0.18
-0.165
-0.17
-0.165
-0.18
-0.19
-0.2
-0.19
-0.2
-0.195
-0.205
-0.21
-0.22
-0.22
-0.2
-0.2
-0.215
-0.23
-0.235
-0.23
-0.225
-0.215
-0.22
-0.245
-0.24
-0.235
-0.22
-0.215
-0.225
-0.225
-0.235
-0.225
-0.205
-0.205
-0.21
-0.22
-0.23
-0.235
-0.235
-0.235
-0.235
-0.25
-0.275
-0.275
-0.29
-0.315
-0.345
-0.35
-0.305
-0.185
-0.065
0.015
0.07
0.15
0.26
0.4
0.495
0.415
0.135
-0.19
-0.375
-0.38
-0.32
-0.285
-0.27
-0.275
-0.255
-0.26
-0.25
-0.265
-0.265
-0.265
-0.28
-0.265
-0.255
-0.255
-0.265
-0.275
-0.29
-0.275
-0.255
-0.245
-0.24
-0.255
-0.275
-0.255
-0.255
-0.245
-0.25
-0.255
-0.26
-0.255
-0.235
-0.24
-0.245
-0.245
-0.245
-0.245
-0.235
-0.24
-0.24
-0.24
-0.24
-0.25
-0.24
-0.23
-0.235
-0.25
-0.26
-0.26
-0.24
-0.24
-0.245
-0.26
-0.25
-0.25
-0.245
-0.25
-0.25
-0.26
-0.255
-0.26
-0.245
-0.24
-0.25
-0.27
-0.275
-0.265
-0.265
-0.265
-0.27
-0.285
-0.285
-0.295
-0.3
-0.3
-0.305
-0.315
-0.325
-0.34
-0.33
-0.34
-0.345
-0.37
-0.37
-0.365
-0.36
-0.365
-0.38
-0.395
-0.4
-0.395
-0.39
-0.38
-0.39
-0.39
-0.385
-0.375
-0.365
-0.345
-0.325
-0.31
-0.31
-0.28
-0.27
-0.255
-0.24
-0.26
-0.26
-0.235
-0.225
-0.195
-0.2
-0.215
-0.205
-0.2
-0.19
-0.19
-0.18
-0.185
-0.195
-0.185
-0.165
-0.175
-0.18
-0.19
-0.205
-0.18
-0.17
-0.185
-0.19
-0.19
-0.195
-0.18
-0.175
-0.165
-0.175
-0.18
-0.185
-0.19
-0.175
-0.185
-0.18
-0.19
-0.195
-0.18
-0.175
-0.175
-0.185
-0.19
-0.175
-0.175
-0.165
-0.16
-0.17
-0.185
-0.185
-0.19
-0.175
-0.165
-0.18
-0.19
-0.19
-0.19
-0.17
-0.18
-0.17
-0.18
-0.18
-0.175
-0.165
-0.165
-0.16
-0.175
-0.18
-0.17
-0.165
-0.17
-0.165
-0.165
-0.175
-0.16
-0.16
-0.145
-0.145
-0.16
-0.165
-0.165
-0.15
-0.15
-0.145
-0.15
-0.16
-0.145
-0.145
-0.145
-0.15
-0.16
-0.145
-0.15
-0.135
-0.14
-0.15
-0.155
-0.15
-0.145
-0.13
-0.135
-0.13
-0.155
-0.145
-0.14
-0.115
-0.11
-0.1
-0.11
-0.11
-0.1
-0.095
-0.1
-0.095
-0.095
-0.1
-0.09
-0.065
-0.045
-0.065
-0.07
-0.075
-0.065
-0.055
-0.06
-0.07
-0.085
-0.09
-0.105
-0.085
-0.085
-0.1
-0.105
-0.115
-0.115
-0.11
-0.12
-0.105
-0.125
-0.12
-0.125
-0.115
-0.115
-0.12
-0.12
-0.135
-0.125
-0.11
-0.11
-0.12
-0.13
-0.145
-0.13
-0.13
-0.14
-0.175
-0.205
-0.245
-0.27
-0.27
-0.22
-0.135
-0.015
0.12
0.22
0.32
0.425
0.55
0.67
0.735
0.66
0.405
0.03
-0.24
-0.34
-0.32
-0.265
-0.2
-0.195
-0.19
-0.195
-0.18
-0.165
-0.15
-0.15
-0.16
-0.18
-0.175
-0.17
-0.165
-0.16
-0.17
-0.175
-0.175
-0.16
-0.145
-0.15
-0.15
-0.155
-0.16
-0.165
-0.15
-0.155
-0.135
-0.165
-0.155
-0.155
-0.14
-0.15
-0.15
-0.145
-0.14
-0.13
-0.135
-0.13
-0.14
-0.145
-0.15
-0.14
-0.125
-0.13
-0.135
-0.14
-0.145
-0.14
-0.135
-0.13
-0.13
-0.145
-0.15
-0.155
-0.15
-0.145
-0.135
-0.155
-0.155
-0.15
-0.15
-0.155
-0.16
-0.175
-0.175
-0.18
-0.175
-0.175
-0.185
-0.215
-0.225
-0.22
-0.2
-0.21
-0.225
-0.25
-0.255
-0.26
-0.255
-0.245
-0.255
-0.275
-0.28
-0.28
-0.265
-0.275
-0.285
-0.295
-0.295
-0.29
-0.265
-0.26
-0.25
-0.265
-0.25
-0.24
-0.215
-0.19
-0.18
-0.185
-0.18
-0.16
-0.135
-0.125
-0.11
-0.115
-0.105
-0.095
-0.085
-0.075
-0.09
-0.09
-0.095
-0.07
-0.06
-0.065
-0.07
-0.075
-0.085
-0.075
-0.07
-0.065
-0.065
-0.08
-0.085
-0.07
-0.065
-0.065
-0.065
-0.085
-0.085
-0.07
-0.06
-0.065
-0.07
-0.075
-0.09
-0.08
-0.07
-0.07
-0.07
-0.085
-0.085
-0.09
-0.085
-0.07
-0.08
-0.09
-0.095
-0.075
-0.085
-0.08
-0.08
-0.09
-0.095
-0.085
-0.07
-0.07
-0.09
-0.09
-0.1
-0.09
-0.08
-0.08
-0.07
-0.085
-0.1
-0.1
-0.075
-0.075
-0.08
-0.085
-0.1
-0.09
-0.08
-0.07
-0.07
-0.09
-0.085
-0.075
-0.06
-0.065
-0.07
-0.075
-0.085
-0.075
-0.055
-0.05
-0.06
-0.06
-0.075
-0.06
-0.05
-0.045
-0.045
-0.06
-0.06
-0.055
-0.04
-0.05
-0.05
-0.05
-0.06
-0.055
-0.04
-0.04
-0.06
-0.06
-0.065
-0.045
-0.02
-0.03
-0.035
-0.03
-0.035
-0.02
-0.01
0.005
-0.015
0
-0.015
-0.01
0
0.01
0.005
0
-0.005
0.015
0.025
0.025
0.005
0.005
0.01
0.015
0.025
0.01
0
-0.01
-0.025
-0.015
-0.005
-0.015
-0.035
-0.035
-0.05
-0.035
-0.03
-0.025
-0.03
-0.055
-0.055
-0.055
-0.05
-0.045
-0.035
-0.06
-0.055
-0.065
-0.05
-0.05
-0.045
-0.065
-0.055
-0.055
-0.05
-0.06
-0.085
-0.13
-0.15
-0.17
-0.19
-0.195
-0.155
-0.065
0.06
0.205
0.325
0.45
0.565
0.675
0.78
0.84
0.75
0.495
0.155
-0.08
-0.13
-0.105
-0.085
-0.11
-0.08
-0.095
-0.08
-0.085
-0.085
-0.08
-0.095
-0.1
-0.115
-0.12
-0.1
-0.095
-0.095
-0.11
-0.115
-0.105
-0.09
-0.095
-0.105
-0.11
-0.11
-0.1
-0.095
-0.1
-0.095
-0.12
-0.11
-0.105
-0.085
-0.095
-0.09
-0.1
-0.105
-0.1
-0.095
-0.09
-0.09
-0.105
-0.1
-0.09
-0.085
-0.095
-0.095
-0.11
-0.11
-0.11
-0.09
-0.09
-0.09
-0.1
-0.115
-0.12
-0.11
-0.105
-0.105
-0.11
-0.125
-0.125
-0.12
-0.12
-0.12
-0.135
-0.145
-0.145
-0.14
-0.135
-0.145
-0.16
-0.175
-0.165
-0.16
-0.16
-0.18
-0.2
-0.2
-0.21
-0.21
-0.2
-0.21
-0.22
-0.235
-0.23
-0.23
-0.235
-0.24
-0.25
-0.275
-0.265
-0.24
-0.24
-0.24
-0.26
-0.26
-0.25
-0.23
-0.21
-0.195
-0.205
-0.195
-0.18
-0.165
-0.15
-0.14
-0.135
-0.13
-0.11
-0.1
-0.085
-0.08
-0.085
-0.085
-0.07
-0.065
-0.05
-0.045
-0.06
-0.06
-0.045
-0.05
-0.06
-0.055
-0.045
-0.06
-0.045
-0.04
-0.035
-0.045
-0.055
-0.055
-0.05
-0.045
-0.04
-0.04
-0.07
-0.075
-0.06
-0.045
-0.05
-0.05
-0.07
-0.08
-0.08
-0.07
-0.06
-0.055
-0.07
-0.075
-0.075
-0.06
-0.07
-0.07
-0.085
-0.085
-0.075
-0.06
-0.06
-0.065
-0.08
-0.09
-0.08
-0.075
-0.085
-0.075
-0.095
-0.08
-0.075
-0.065
-0.065
-0.075
-0.09
-0.085
-0.07
-0.07
-0.07
-0.07
-0.085
-0.09
-0.085
-0.075
-0.08
-0.07
-0.075
-0.085
-0.09
-0.065
-0.065
-0.07
-0.075
-0.08
-0.075
-0.065
-0.06
-0.065
-0.075
-0.085
-0.075
-0.055
-0.065
-0.065
-0.07
-0.08
-0.08
-0.065
-0.055
-0.065
-0.065
-0.08
-0.075
-0.06
-0.06
-0.06
-0.07
-0.065
-0.065
-0.05
-0.055
-0.055
-0.055
-0.06
-0.05
-0.035
-0.015
-0.025
-0.03
-0.04
-0.035
-0.005
0
-0.005
-0.015
-0.025
-0.035
-0.015
-0.005
-0.01
-0.03
-0.025
-0.025
-0.02
-0.015
-0.03
-0.045
-0.045
-0.045
-0.04
-0.04
-0.045
-0.055
-0.065
-0.055
-0.06
-0.065
-0.07
-0.085
-0.075
-0.08
-0.085
-0.07
-0.075
-0.065
-0.08
-0.075
-0.075
-0.06
-0.07
-0.09
-0.1
-0.105
-0.12
-0.14
-0.16
-0.2
-0.235
-0.25
-0.215
-0.135
-0.015
0.09
0.175
0.29
0.39
0.51
0.615
0.635
0.485
0.19
-0.085
-0.195
-0.17
-0.155
-0.14
-0.13
-0.125
-0.11
-0.125
-0.135
-0.145
-0.145
-0.13
-0.14
-0.14
-0.145
-0.14
-0.13
-0.13
-0.115
-0.14
-0.145
-0.155
-0.155
-0.13
-0.135
-0.135
-0.15
-0.145
-0.145
-0.13
-0.145
-0.135
-0.15
-0.15
-0.15
-0.145
-0.15
-0.14
-0.15
-0.155
-0.145
-0.135
-0.135
-0.145
-0.155
-0.16
-0.16
-0.15
-0.15
-0.135
-0.16
-0.15
-0.15
-0.14
-0.145
-0.15
-0.16
-0.17
-0.17
-0.17
-0.165
-0.175
-0.18
-0.19
-0.185
-0.18
-0.19
-0.2
-0.2
-0.21
-0.2
-0.195
-0.215
-0.22
-0.24
-0.255
-0.245
-0.235
-0.24
-0.25
-0.26
-0.275
-0.27
-0.255
-0.275
-0.28
-0.28
-0.285
-0.29
-0.28
-0.28
-0.285
-0.3
-0.31
-0.3
-0.295
-0.29
-0.275
-0.285
-0.265
-0.26
-0.24
-0.235
-0.225
-0.225
-0.21
-0.195
-0.17
-0.16
-0.155
-0.16
-0.16
-0.15
-0.145
-0.14
-0.14
-0.145
-0.145
-0.145
-0.13
-0.125
-0.125
-0.145
-0.15
-0.14
-0.145
-0.14
-0.15
-0.16
-0.15
-0.135
-0.14
-0.145
-0.155
-0.155
-0.16
-0.15
-0.15
-0.16
-0.165
-0.175
-0.17
-0.175
-0.17
-0.175
-0.16
-0.18
-0.18
-0.175
-0.165
-0.17
-0.175
-0.19
-0.185
-0.18
-0.165
-0.17
-0.17
-0.19
-0.195
-0.19
-0.17
-0.17
-0.17
-0.185
-0.185
-0.185
-0.18
-0.185
-0.185
-0.195
-0.195
-0.18
-0.18
-0.175
-0.19
-0.2
-0.21
-0.185
-0.175
-0.17
-0.18
-0.185
-0.19
-0.185
-0.18
-0.175
-0.17
-0.18
-0.195
-0.2
-0.175
-0.17
-0.175
-0.185
-0.2
-0.195
-0.185
-0.17
-0.18
-0.18
-0.19
-0.195
-0.175
-0.175
-0.175
-0.195
-0.19
-0.185
-0.185
-0.185
-0.195
-0.19
-0.2
-0.195
-0.17
-0.165
-0.165
-0.18
-0.18
-0.19
-0.16
-0.155
-0.155
-0.175
-0.185
-0.175
-0.155
-0.135
-0.135
-0.145
-0.155
-0.16
-0.135
-0.14
-0.145
-0.155
-0.175
-0.185
-0.175
-0.17
-0.175
-0.18
-0.195
-0.195
-0.19
-0.19
-0.2
-0.2
-0.205
-0.2
-0.185
-0.195
-0.195
-0.205
-0.205
-0.205
-0.2
-0.195
-0.2
-0.22
-0.225
-0.215
-0.195
-0.2
-0.21
-0.215
-0.23
-0.23
-0.245
-0.25
-0.265
-0.31
-0.34
-0.345
-0.28
-0.2
-0.085
0
0.06
0.12
0.215
0.345
0.48
0.5
0.335
0.01
-0.255
-0.365
-0.345
-0.315
-0.29
-0.275
-0.26
-0.245
-0.245
-0.26
-0.245
-0.245
-0.245
-0.24
-0.24
-0.25
-0.25
-0.24
-0.225
-0.225
-0.235
-0.24
-0.245
-0.23
-0.23
-0.23
-0.24
-0.23
-0.225
-0.22
-0.215
-0.225
-0.22
-0.225
-0.23
-0.23
-0.235
-0.245
-0.24
-0.24
-0.245
-0.235
-0.225
-0.23
-0.22
-0.23
-0.235
-0.225
-0.21
-0.21
-0.22
-0.24
-0.24
-0.23
-0.22
-0.22
-0.23
-0.24
-0.245
-0.24
-0.235
-0.235
-0.23
-0.23
-0.245
-0.245
-0.24
-0.225
-0.24
-0.255
-0.255
-0.26
-0.26
-0.265
-0.265
-0.285
-0.3
-0.295
-0.285
-0.295
-0.305
-0.315
-0.33
-0.325
-0.325
-0.315
-0.335
-0.36
-0.365
-0.365
-0.38
-0.36
-0.375
-0.39
-0.385
-0.38
-0.36
-0.355
-0.35
-0.35
-0.345
-0.33
-0.305
-0.29
-0.285
-0.29
-0.29
-0.26
-0.25
-0.235
-0.23
-0.22
-0.215
-0.2
-0.185
-0.185
-0.18
-0.185
-0.19
-0.18
-0.16
-0.155
-0.16
-0.165
-0.18
-0.17
-0.155
-0.15
-0.155
-0.165
-0.18
-0.165
-0.155
-0.155
-0.155
-0.17
-0.17
-0.17
-0.16
-0.16
-0.16
-0.165
-0.185
-0.17
-0.16
-0.155
-0.16
-0.16
-0.17
-0.165
-0.17
-0.16
-0.15
-0.165
-0.18
-0.17
-0.155
-0.16
-0.165
-0.17
-0.185
-0.175
-0.155
-0.165
-0.16
-0.175
-0.185
-0.175
-0.165
-0.17
-0.17
-0.18
-0.175
-0.165
-0.17
-0.175
-0.175
-0.175
-0.19
-0.18
-0.165
-0.17
-0.175
-0.19
-0.175
-0.175
-0.16
-0.15
-0.155
-0.175
-0.165
-0.18
-0.16
-0.155
-0.155
-0.165
-0.165
-0.165
-0.155
-0.16
-0.16
-0.17
-0.175
-0.165
-0.145
-0.145
-0.135
-0.165
-0.18
-0.15
-0.16
-0.15
-0.15
-0.165
-0.17
-0.165
-0.155
-0.155
-0.15
-0.17
-0.165
-0.165
-0.145
-0.145
-0.145
-0.15
-0.145
-0.145
-0.13
-0.13
-0.12
-0.135
-0.135
-0.125
-0.12
-0.105
-0.1
-0.11
-0.1
-0.105
-0.09
-0.1
-0.09
-0.105
-0.115
-0.125
-0.125
-0.125
-0.125
-0.13
-0.135
-0.15
-0.13
-0.135
-0.14
-0.145
-0.155
-0.15
-0.135
-0.155
-0.16
-0.155
-0.17
-0.16
-0.15
-0.145
-0.155
-0.16
-0.16
-0.17
-0.16
-0.155
-0.145
-0.155
-0.155
-0.15
-0.155
-0.16
-0.16
-0.165
-0.175
-0.195
-0.21
-0.23
-0.25
-0.275
-0.315
-0.31
-0.285
-0.2
-0.075
0.05
0.165
0.275
0.41
0.53
0.645
0.735
0.705
0.5
0.15
-0.145
-0.26
-0.225
-0.205
-0.2
-0.19
-0.18
-0.185
-0.195
-0.21
-0.21
-0.185
-0.195
-0.205
-0.21
-0.21
-0.2
-0.19
-0.18
-0.195
-0.215
-0.22
-0.2
-0.19
-0.185
-0.19
-0.21
-0.21
-0.215
-0.2
-0.205
-0.2
-0.205
-0.205
-0.205
-0.185
-0.195
-0.205
-0.205
-0.205
-0.2
-0.19
-0.185
-0.19
-0.215
-0.22
-0.205
-0.185
-0.195
-0.2
-0.205
-0.22
-0.215
-0.205
-0.2
-0.21
-0.22
-0.22
-0.215
-0.205
-0.195
-0.21
-0.225
-0.245
-0.225
-0.22
-0.22
-0.225
-0.24
-0.25
-0.245
-0.24
-0.255
-0.255
-0.28
-0.285
-0.275
-0.27
-0.275
-0.29
-0.305
-0.31
-0.325
-0.31
-0.31
-0.325
-0.34
-0.36
-0.35
-0.355
-0.36
-0.35
-0.355
-0.36
-0.355
-0.355
-0.355
-0.355
-0.345
-0.335
-0.32
-0.305
-0.29
-0.275
-0.27
-0.265
-0.24
-0.21
-0.2
-0.205
-0.195
-0.195
-0.185
-0.17
-0.155
-0.155
-0.15
-0.16
-0.155
-0.14
-0.14
-0.135
-0.15
-0.155
-0.145
-0.135
-0.135
-0.145
-0.145
-0.155
-0.155
-0.14
-0.145
-0.14
-0.15
-0.165
-0.15
-0.145
-0.14
-0.14
-0.155
-0.16
-0.16
-0.145
-0.145
-0.145
-0.165
-0.16
-0.145
-0.16
-0.15
-0.15
-0.155
-0.18
-0.16
-0.14
-0.16
-0.165
-0.17
-0.165
-0.165
-0.165
-0.155
-0.155
-0.175
-0.185
-0.18
-0.165
-0.17
-0.165
-0.175
-0.18
-0.17
-0.175
-0.175
-0.185
-0.195
-0.19
-0.19
-0.17
-0.17
-0.175
-0.18
-0.185
-0.18
-0.17
-0.17
-0.175
-0.18
-0.195
-0.185
-0.175
-0.17
-0.175
-0.18
-0.185
-0.175
-0.165
-0.17
-0.175
-0.18
-0.19
-0.185
-0.165
-0.16
-0.16
-0.18
-0.185
-0.175
-0.165
-0.16
-0.155
-0.17
-0.17
-0.18
-0.17
-0.16
-0.185
-0.185
-0.18
-0.16
-0.155
-0.16
-0.16
-0.155
-0.165
-0.15
-0.14
-0.14
-0.145
-0.145
-0.145
-0.135
-0.11
-0.12
-0.13
-0.135
-0.14
-0.115
-0.105
-0.1
-0.1
-0.12
-0.11
-0.12
-0.105
-0.1
-0.12
-0.135
-0.15
-0.135
-0.13
-0.135
-0.145
-0.155
-0.165
-0.16
-0.155
-0.15
-0.155
-0.165
-0.18
-0.175
-0.17
-0.155
-0.16
-0.175
-0.17
-0.18
-0.175
-0.17
-0.17
-0.195
-0.185
-0.175
-0.16
-0.165
-0.175
-0.2
-0.225
-0.24
-0.255
-0.275
-0.31
-0.345
-0.34
-0.27
-0.165
-0.04
0.07
0.16
0.25
0.375
0.5
0.615
0.7
0.635
0.4
0.07
-0.17
-0.24
-0.225
-0.215
-0.225
-0.22
-0.205
-0.2
-0.2
-0.22
-0.23
-0.23
-0.215
-0.215
-0.215
-0.22
-0.24
-0.225
-0.22
-0.22
-0.21
-0.225
-0.24
-0.23
-0.22
-0.21
-0.215
-0.23
-0.23
-0.225
-0.205
-0.205
-0.21
-0.225
-0.235
-0.225
-0.21
-0.205
-0.215
-0.22
-0.23
-0.22
-0.21
-0.22
-0.215
-0.22
-0.215
-0.22
-0.21
-0.215
-0.215
-0.235
-0.23
-0.22
-0.21
-0.21
-0.225
-0.24
-0.24
-0.23
-0.23
-0.225
-0.24
-0.24
-0.27
-0.255
-0.25
-0.245
-0.255
-0.265
-0.275
-0.275
-0.285
-0.265
-0.285
-0.31
-0.305
-0.31
-0.31
-0.31
-0.31
-0.34
-0.355
-0.35
-0.34
-0.35
-0.36
-0.38
-0.38
-0.375
-0.375
-0.365
-0.37
-0.375
-0.385
-0.38
-0.36
-0.355
-0.36
-0.365
-0.37
-0.345
-0.325
-0.32
-0.305
-0.3
-0.29
-0.27
-0.25
-0.235
-0.225
-0.22
-0.24
-0.21
-0.19
-0.195
-0.185
-0.185
-0.195
-0.165
-0.17
-0.18
-0.165
-0.175
-0.2
-0.17
-0.16
-0.16
-0.17
-0.175
-0.185
-0.185
-0.18
-0.17
-0.17
-0.17
-0.18
-0.18
-0.18
-0.18
-0.18
-0.2
-0.195
-0.18
-0.175
-0.19
-0.19
-0.2
-0.195
-0.19
-0.195
-0.18
-0.19
-0.2
-0.215
-0.205
-0.2
-0.19
-0.19
-0.195
-0.21
-0.205
-0.205
-0.2
-0.2
-0.22
-0.22
-0.22
-0.205
-0.185
-0.2
-0.21
-0.215
-0.2
-0.21
-0.2
-0.2
-0.205
-0.21
-0.2
-0.2
-0.19
-0.2
-0.22
-0.225
-0.22
-0.2
-0.195
-0.2
-0.195
-0.21
-0.195
-0.19
-0.185
-0.19
-0.2
-0.2
-0.19
-0.205
-0.19
-0.19
-0.19
-0.19
-0.18
-0.185
-0.185
-0.18
-0.19
-0.205
-0.185
-0.185
-0.185
-0.18
-0.2
-0.2
-0.19
-0.195
-0.185
-0.18
-0.19
-0.185
-0.18
-0.165
-0.165
-0.155
-0.165
-0.165
-0.15
-0.14
-0.14
-0.145
-0.16
-0.16
-0.15
-0.13
-0.13
-0.14
-0.15
-0.15
-0.15
-0.145
-0.13
-0.145
-0.15
-0.17
-0.16
-0.155
-0.15
-0.16
-0.17
-0.175
-0.17
-0.16
-0.17
-0.18
-0.195
-0.195
-0.2
-0.19
-0.19
-0.19
-0.2
-0.21
-0.2
-0.205
-0.195
-0.205
-0.22
-0.23
-0.215
-0.21
-0.205
-0.215
-0.225
-0.23
-0.215
-0.23
-0.225
-0.26
-0.29
-0.32
-0.335
-0.35
-0.35
-0.325
-0.245
-0.15
-0.06
0.015
0.09
0.185
0.275
0.375
0.45
0.41
0.22
-0.08
-0.315
-0.38
-0.345
-0.29
-0.275
-0.26
-0.275
-0.27
-0.275
-0.265
-0.265
-0.27
-0.275
-0.28
-0.27
-0.265
-0.255
-0.26
-0.27
-0.275
-0.275
-0.255
-0.25
-0.255
-0.275
-0.285
-0.265
-0.27
-0.26
-0.265
-0.27
-0.275
-0.26
-0.265
-0.265
-0.26
-0.285
-0.29
-0.275
-0.275
-0.27
-0.27
-0.275
-0.28
-0.275
-0.26
-0.265
-0.265
-0.27
-0.285
-0.275
-0.27
-0.265
-0.265
-0.285
-0.295
-0.29
-0.285
-0.275
-0.265
-0.27
-0.27
-0.28
-0.275
-0.275
-0.285
-0.29
-0.3
-0.295
-0.285
-0.3
-0.3
-0.32
-0.33
-0.315
-0.29
-0.29
-0.32
-0.32
-0.33
-0.34
-0.335
-0.335
-0.345
-0.35
-0.36
-0.36
-0.35
-0.345
-0.35
-0.375
-0.385
-0.405
-0.39
-0.4
-0.385
-0.395
-0.405
-0.405
-0.4
-0.395
-0.39
-0.39
-0.385
-0.375
-0.355
-0.34
-0.34
-0.335
-0.32
-0.31
-0.29
-0.275
-0.265
-0.26
-0.275
-0.25
-0.25
-0.235
-0.24
-0.255
-0.245
-0.24
-0.23
-0.225
-0.22
-0.215
-0.235
-0.22
-0.23
-0.215
-0.22
-0.23
-0.24
-0.23
-0.225
-0.225
-0.24
-0.255
-0.255
-0.235
-0.225
-0.225
-0.22
-0.235
-0.245
-0.245
-0.235
-0.235
-0.235
-0.255
-0.26
-0.245
-0.255
-0.26
-0.255
-0.255
-0.27
-0.25
-0.24
-0.25
-0.25
-0.26
-0.265
-0.26
-0.255
-0.25
-0.265
-0.27
-0.275
-0.26
-0.27
-0.26
-0.26
-0.255
-0.27
-0.265
-0.24
-0.24
-0.255
-0.26
-0.28
-0.275
-0.265
-0.255
-0.26
-0.275
-0.27
-0.275
-0.265
-0.25
-0.25
-0.27
-0.275
-0.27
-0.265
-0.265
-0.265
-0.28
-0.285
-0.28
-0.26
-0.255
-0.255
-0.265
-0.285
-0.27
-0.255
-0.26
-0.26
-0.275
-0.27
-0.265
-0.245
-0.26
-0.25
-0.27
-0.275
-0.28
-0.275
-0.265
-0.255
-0.26
-0.265
-0.255
-0.245
-0.225
-0.22
-0.23
-0.245
-0.23
-0.22
-0.215
-0.21
-0.22
-0.225
-0.225
-0.22
-0.22
-0.22
-0.235
-0.25
-0.255
-0.245
-0.23
-0.245
-0.27
-0.275
-0.26
-0.265
-0.26
-0.255
-0.265
-0.285
-0.27
-0.265
-0.27
-0.265
-0.285
-0.285
-0.28
-0.27
-0.26
-0.27
-0.275
-0.29
-0.285
-0.28
-0.265
-0.27
-0.28
-0.28
-0.285
-0.28
-0.31
-0.325
-0.35
-0.385
-0.395
-0.39
-0.345
-0.24
-0.135
-0.05
0.015
0.095
0.195
0.32
0.405
0.405
0.265
-0.03
-0.315
-0.45
-0.43
-0.38
-0.34
-0.315
-0.315
-0.3
-0.315
-0.325
-0.31
-0.305
-0.29
-0.295
-0.31
-0.3
-0.31
-0.295
-0.285
-0.285
-0.295
-0.295
-0.295
-0.285
-0.285
-0.285
-0.3
-0.305
-0.3
-0.28
-0.285
-0.28
-0.3
-0.295
-0.305
-0.3
-0.29
-0.29
-0.295
-0.29
-0.295
-0.285
-0.27
-0.28
-0.275
-0.29
-0.285
-0.285
-0.275
-0.28
-0.3
-0.3
-0.285
-0.27
-0.28
-0.28
-0.295
-0.3
-0.3
-0.28
-0.275
-0.275
-0.29
-0.305
-0.295
-0.295
-0.295
-0.29
-0.3
-0.3
-0.31
-0.305
-0.315
-0.315
-0.33
-0.345
-0.34
-0.34
-0.33
-0.35
-0.37
-0.385
-0.38
-0.375
-0.375
-0.38
-0.405
-0.42
-0.415
-0.405
-0.405
-0.42
-0.41
-0.425
-0.425
-0.41
-0.405
-0.4
-0.39
-0.4
-0.365
-0.35
-0.335
-0.325
-0.325
-0.32
-0.295
-0.265
-0.255
-0.25
-0.245
-0.25
-0.23
-0.22
-0.215
-0.215
-0.23
-0.225
-0.22
-0.215
-0.205
-0.215
-0.23
-0.23
-0.21
-0.195
-0.205
-0.215
-0.225
-0.225
-0.22
-0.21
-0.21
-0.21
-0.22
-0.24
-0.225
-0.22
-0.205
-0.215
-0.225
-0.245
-0.225
-0.235
-0.23
-0.225
-0.235
-0.25
-0.24
-0.23
-0.235
-0.235
-0.245
-0.255
-0.245
-0.245
-0.24
-0.235
-0.24
-0.255
-0.24
-0.235
-0.245
-0.245
-0.255
-0.26
-0.24
-0.24
-0.245
-0.24
-0.255
-0.255
-0.245
-0.245
-0.25
-0.235
-0.255
-0.245
-0.25
-0.24
-0.23
-0.235
-0.245
-0.255
-0.26
-0.24
-0.23
-0.24
-0.24
-0.245
-0.245
-0.235
-0.235
-0.23
-0.245
-0.255
-0.24
-0.225
-0.235
-0.235
-0.25
-0.245
-0.24
-0.225
-0.225
-0.24
-0.26
-0.255
-0.255
-0.23
-0.23
-0.225
-0.245
-0.245
-0.24
-0.22
-0.22
-0.2
-0.21
-0.205
-0.205
-0.19
-0.195
-0.195
-0.215
-0.205
-0.19
-0.175
-0.165
-0.165
-0.185
-0.195
-0.185
-0.165
-0.17
-0.185
-0.185
-0.2
-0.205
-0.2
-0.2
-0.205
-0.215
-0.225
-0.225
-0.22
-0.225
-0.225
-0.22
-0.23
-0.24
-0.23
-0.235
-0.235
-0.245
-0.25
-0.235
-0.22
-0.215
-0.21
-0.245
-0.25
-0.245
-0.235
-0.245
-0.285
-0.31
-0.345
-0.365
-0.38
-0.36
-0.26
-0.135
0.005
0.14
0.255
0.385
0.525
0.63
0.73
0.765
0.67
0.46
0.185
-0.05
-0.245
-0.39
-0.465
-0.49
-0.48
-0.44
-0.38
-0.34
-0.3
-0.28
-0.285
-0.29
-0.3
-0.295
-0.295
-0.275
-0.285
-0.3
-0.295
-0.3
-0.29
-0.295
-0.29
-0.295
-0.3
-0.29
-0.285
-0.29
-0.29
-0.285
-0.31
-0.31
-0.275
-0.275
-0.29
-0.29
-0.3
-0.285
-0.265
-0.265
-0.265
-0.285
-0.285
-0.285
-0.285
-0.265
-0.27
-0.28
-0.29
-0.29
-0.27
-0.285
-0.28
-0.29
-0.295
-0.29
-0.285
-0.285
-0.295
-0.3
-0.315
-0.31
-0.3
-0.3
-0.32
-0.325
-0.335
-0.34
-0.33
-0.335
-0.335
-0.35
-0.37
-0.365
-0.37
-0.37
-0.38
-0.39
-0.405
-0.4
-0.405
-0.405
-0.41
-0.42
-0.43
-0.42
-0.425
-0.41
-0.415
-0.435
-0.445
-0.435
-0.43
-0.42
-0.43
-0.435
-0.42
-0.41
-0.395
-0.39
-0.375
-0.375
-0.355
-0.325
-0.3
-0.275
-0.28
-0.27
-0.26
-0.25
-0.23
-0.21
-0.215
-0.22
-0.225
-0.21
-0.2
-0.185
-0.205
-0.2
-0.205
-0.21
-0.2
-0.195
-0.205
-0.2
-0.205
-0.2
-0.19
-0.19
-0.2
-0.21
-0.22
-0.21
-0.19
-0.205
-0.205
-0.22
-0.22
-0.225
-0.215
-0.21
-0.21
-0.215
-0.23
-0.23
-0.215
-0.22
-0.225
-0.23
-0.235
-0.23
-0.215
-0.22
-0.23
-0.245
-0.245
-0.245
-0.235
-0.225
-0.225
-0.24
-0.255
-0.245
-0.235
-0.235
-0.23
-0.245
-0.245
-0.235
-0.24
-0.24
-0.23
-0.25
-0.24
-0.235
-0.24
-0.23
-0.24
-0.25
-0.25
-0.24
-0.235
-0.22
-0.22
-0.23
-0.245
-0.225
-0.225
-0.22
-0.22
-0.235
-0.23
-0.22
-0.215
-0.215
-0.22
-0.22
-0.225
-0.23
-0.21
-0.215
-0.2
-0.225
-0.235
-0.22
-0.22
-0.225
-0.215
-0.22
-0.23
-0.21
-0.2
-0.2
-0.2
-0.195
-0.2
-0.195
-0.185
-0.19
-0.18
-0.19
-0.2
-0.18
-0.17
-0.15
-0.16
-0.17
-0.175
-0.165
-0.15
-0.145
-0.165
-0.17
-0.2
-0.205
-0.19
-0.185
-0.19
-0.21
-0.22
-0.21
-0.21
-0.205
-0.205
-0.215
-0.22
-0.215
-0.21
-0.205
-0.22
-0.225
-0.225
-0.215
-0.215
-0.21
-0.215
-0.22
-0.24
-0.23
-0.225
-0.245
-0.28
-0.305
-0.345
-0.375
-0.37
-0.32
-0.215
-0.085
0.035
0.13
0.255
0.365
0.48
0.58
0.665
0.725
0.68
0.48
0.125
-0.165
-0.325
-0.315
-0.27
-0.255
-0.26
-0.26
-0.26
-0.255
-0.26
-0.25
-0.255
-0.26
-0.27
-0.265
-0.25
-0.25
-0.255
-0.26
-0.28
-0.26
-0.255
-0.255
-0.26
-0.265
-0.285
-0.265
-0.245
-0.25
-0.255
-0.265
-0.265
-0.27
-0.26
-0.255
-0.245
-0.255
-0.275
-0.26
-0.26
-0.24
-0.25
-0.255
-0.265
-0.25
-0.245
-0.25
-0.265
-0.26
-0.27
-0.26
-0.25
-0.25
-0.25
-0.27
-0.27
-0.27
-0.265
-0.26
-0.265
-0.275
-0.28
-0.275
-0.275
-0.285
-0.285
-0.31
-0.315
-0.31
-0.29
-0.305
-0.32
-0.32
-0.34
-0.34
-0.335
-0.325
-0.335
-0.355
-0.375
-0.36
-0.365
-0.365
-0.365
-0.37
-0.395
-0.39
-0.385
-0.39
-0.4
-0.415
-0.41
-0.395
-0.38
-0.37
-0.38
-0.39
-0.395
-0.375
-0.37
-0.35
-0.33
-0.325
-0.325
-0.31
-0.285
-0.275
-0.285
-0.275
-0.27
-0.25
-0.23
-0.225
-0.22
-0.23
-0.23
-0.225
-0.215
-0.195
-0.195
-0.215
-0.21
-0.215
-0.21
-0.21
-0.205
-0.22
-0.215
-0.215
-0.21
-0.215
-0.215
-0.225
-0.24
-0.225
-0.215
-0.22
-0.21
-0.22
-0.225
-0.235
-0.225
-0.23
-0.235
-0.235
-0.235
-0.24
-0.24
-0.24
-0.235
-0.24
-0.24
-0.23
-0.23
-0.235
-0.24
-0.255
-0.27
-0.265
-0.25
-0.24
-0.245
-0.255
-0.265
-0.26
-0.255
-0.24
-0.25
-0.26
-0.27
-0.27
-0.255
-0.26
-0.26
-0.26
-0.255
-0.265
-0.26
-0.25
-0.255
-0.26
-0.27
-0.26
-0.245
-0.245
-0.245
-0.27
-0.27
-0.275
-0.255
-0.255
-0.25
-0.27
-0.275
-0.255
-0.26
-0.25
-0.255
-0.27
-0.275
-0.26
-0.245
-0.23
-0.245
-0.265
-0.27
-0.27
-0.26
-0.26
-0.255
-0.27
-0.275
-0.26
-0.255
-0.245
-0.24
-0.245
-0.26
-0.25
-0.225
-0.22
-0.235
-0.255
-0.245
-0.25
-0.225
-0.225
-0.225
-0.215
-0.225
-0.23
-0.21
-0.21
-0.215
-0.225
-0.245
-0.24
-0.235
-0.235
-0.245
-0.25
-0.265
-0.255
-0.26
-0.265
-0.27
-0.27
-0.275
-0.285
-0.27
-0.27
-0.28
-0.28
-0.28
-0.275
-0.27
-0.27
-0.27
-0.28
-0.285
-0.285
-0.28
-0.28
-0.28
-0.29
-0.315
-0.305
-0.295
-0.275
-0.285
-0.305
-0.325
-0.345
-0.36
-0.38
-0.41
-0.43
-0.405
-0.305
-0.195
-0.115
-0.05
-0.005
0.075
0.2
0.33
0.4
0.355
0.135
-0.185
-0.405
-0.455
-0.41
-0.355
-0.34
-0.34
-0.335
-0.325
-0.31
-0.33
-0.335
-0.33
-0.33
-0.31
-0.31
-0.3
-0.305
-0.325
-0.32
-0.31
-0.31
-0.325
-0.325
-0.325
-0.31
-0.295
-0.315
-0.32
-0.335
-0.33
-0.325
-0.31
-0.3
-0.3
-0.315
-0.335
-0.315
-0.3
-0.29
-0.295
-0.315
-0.32
-0.305
-0.305
-0.31
-0.315
-0.315
-0.32
-0.305
-0.31
-0.3
-0.3
-0.31
-0.325
-0.31
-0.3
-0.3
-0.285
-0.305
-0.305
-0.31
-0.315
-0.31
-0.325
-0.335
-0.335
-0.325
-0.32
-0.31
-0.32
-0.33
-0.345
-0.345
-0.325
-0.315
-0.335
-0.36
-0.38
-0.365
-0.35
-0.365
-0.37
-0.39
-0.39
-0.39
-0.39
-0.39
-0.405
-0.415
-0.415
-0.42
-0.4
-0.405
-0.425
-0.445
-0.455
-0.455
-0.44
-0.435
-0.43
-0.445
-0.435
-0.445
-0.435
-0.425
-0.43
-0.42
-0.41
-0.385
-0.365
-0.345
-0.35
-0.345
-0.34
-0.345
-0.33
-0.305
-0.29
-0.305
-0.295
-0.28
-0.28
-0.275
-0.275
-0.285
-0.295
-0.27
-0.245
-0.255
-0.255
-0.28
-0.285
-0.27
-0.26
-0.26
-0.26
-0.275
-0.28
-0.27
-0.265
-0.255
-0.26
-0.275
-0.28
-0.285
-0.27
-0.265
-0.285
-0.295
-0.3
-0.285
-0.285
-0.285
-0.28
-0.285
-0.305
-0.3
-0.275
-0.29
-0.29
-0.3
-0.295
-0.285
-0.29
-0.285
-0.295
-0.295
-0.31
-0.295
-0.285
-0.285
-0.285
-0.305
-0.31
-0.295
-0.295
-0.285
-0.29
-0.3
-0.31
-0.3
-0.29
-0.3
-0.305
-0.3
-0.31
-0.305
-0.295
-0.285
-0.29
-0.295
-0.31
-0.305
-0.3
-0.295
-0.3
-0.3
-0.3
-0.29
-0.28
-0.28
-0.285
-0.3
-0.31
-0.29
-0.285
-0.28
-0.285
-0.295
-0.305
-0.305
-0.29
-0.295
-0.295
-0.305
-0.305
-0.3
-0.29
-0.29
-0.29
-0.305
-0.3
-0.295
-0.28
-0.27
-0.29
-0.28
-0.3
-0.285
-0.265
-0.255
-0.245
-0.265
-0.27
-0.255
-0.255
-0.26
-0.255
-0.25
-0.25
-0.235
-0.225
-0.23
-0.245
-0.245
-0.25
-0.25
-0.235
-0.25
-0.245
-0.26
-0.265
-0.27
-0.26
-0.27
-0.265
-0.285
-0.29
-0.275
-0.265
-0.265
-0.27
-0.275
-0.275
-0.285
-0.265
-0.265
-0.265
-0.27
-0.285
-0.28
-0.26
-0.26
-0.265
-0.28
-0.285
-0.265
-0.26
-0.255
-0.25
-0.27
-0.26
-0.27
-0.26
-0.285
-0.305
-0.35
-0.38
-0.395
-0.405
-0.36
-0.285
-0.175
-0.07
0.02
0.095
0.185
0.305
0.405
0.46
0.385
0.145
-0.15
-0.365
-0.42
-0.38
-0.335
-0.31
-0.29
-0.275
-0.28
-0.3
-0.305
-0.295
-0.285
-0.29
-0.285
-0.3
-0.29
-0.28
-0.275
-0.275
-0.285
-0.285
-0.28
-0.265
-0.27
-0.27
-0.285
-0.29
-0.275
-0.275
-0.265
-0.255
-0.275
-0.29
-0.275
-0.255
-0.245
-0.25
-0.27
-0.265
-0.265
-0.25
-0.255
-0.265
-0.27
-0.275
-0.27
-0.255
-0.245
-0.26
-0.27
-0.28
-0.28
-0.26
-0.26
-0.26
-0.27
-0.28
-0.275
-0.28
-0.27
-0.275
-0.285
-0.295
-0.275
-0.265
-0.27
-0.27
-0.295
-0.31
-0.305
-0.3
-0.3
-0.305
-0.32
-0.32
-0.33
-0.33
-0.335
-0.335
-0.36
-0.36
-0.36
-0.37
-0.375
-0.375
-0.395
-0.41
-0.405
-0.4
-0.395
-0.405
-0.41
-0.425
-0.42
-0.41
-0.4
-0.4
-0.405
-0.4
-0.4
-0.385
-0.365
-0.36
-0.36
-0.36
-0.32
-0.3
-0.29
-0.29
-0.28
-0.27
-0.265
-0.25
-0.225
-0.22
-0.22
-0.225
-0.215
-0.205
-0.21
-0.215
-0.205
-0.22
-0.205
-0.195
-0.19
-0.19
-0.22
-0.21
-0.205
-0.195
-0.19
-0.18
-0.195
-0.2
-0.21
-0.195
-0.205
-0.21
-0.21
-0.215
-0.205
-0.205
-0.205
-0.21
-0.215
-0.235
-0.22
-0.215
-0.205
-0.2
-0.215
-0.235
-0.22
-0.225
-0.22
-0.21
-0.215
-0.22
-0.215
-0.215
-0.215
-0.22
-0.23
-0.24
-0.23
-0.215
-0.22
-0.235
-0.235
-0.245
-0.23
-0.23
-0.225
-0.22
-0.245
-0.24
-0.24
-0.215
-0.22
-0.235
-0.24
-0.24
-0.225
-0.23
-0.21
-0.22
-0.22
-0.24
-0.235
-0.22
-0.225
-0.23
-0.24
-0.235
-0.225
-0.21
-0.21
-0.21
-0.225
-0.235
-0.23
-0.215
-0.225
-0.215
-0.235
-0.225
-0.23
-0.225
-0.215
-0.215
-0.225
-0.235
-0.21
-0.22
-0.205
-0.225
-0.225
-0.23
-0.22
-0.215
-0.205
-0.205
-0.225
-0.23
-0.22
-0.2
-0.205
-0.2
-0.195
-0.2
-0.185
-0.175
-0.18
-0.18
-0.195
-0.19
-0.18
-0.15
-0.145
-0.15
-0.165
-0.17
-0.17
-0.15
-0.14
-0.135
-0.16
-0.17
-0.18
-0.18
-0.19
-0.175
-0.18
-0.19
-0.19
-0.185
-0.19
-0.19
-0.2
-0.21
-0.2
-0.21
-0.195
-0.21
-0.21
-0.225
-0.22
-0.21
-0.195
-0.205
-0.215
-0.215
-0.225
-0.21
-0.21
-0.21
-0.235
-0.23
-0.225
-0.22
-0.245
-0.27
-0.315
-0.355
-0.38
-0.375
-0.345
-0.26
-0.145
-0.03
0.105
0.225
0.335
0.48
0.595
0.68
0.665
0.445
0.09
-0.21
-0.3
-0.275
-0.25
-0.255
-0.25
-0.24
-0.245
-0.255
-0.27
-0.26
-0.255
-0.255
-0.27
-0.28
-0.275
-0.265
-0.25
-0.26
-0.265
-0.285
-0.28
-0.27
-0.26
-0.26
-0.265
-0.285
-0.275
-0.255
-0.27
-0.26
-0.265
-0.275
-0.27
-0.25
-0.25
-0.265
-0.26
-0.28
-0.275
-0.255
-0.24
-0.25
-0.255
-0.27
-0.265
-0.25
-0.25
-0.245
-0.255
-0.26
-0.26
-0.255
-0.25
-0.25
-0.26
-0.255
-0.265
-0.255
-0.255
-0.26
-0.26
-0.275
-0.275
-0.265
-0.26
-0.27
-0.28
-0.305
-0.295
-0.285
-0.27
-0.295
-0.3
-0.3
-0.305
-0.305
-0.315
-0.315
-0.34
-0.35
-0.345
-0.34
-0.345
-0.36
-0.38
-0.395
-0.38
-0.38
-0.37
-0.385
-0.4
-0.415
-0.41
-0.39
-0.375
-0.38
-0.39
-0.39
-0.38
-0.37
-0.36
-0.345
-0.35
-0.345
-0.32
-0.3
-0.265
-0.27
-0.26
-0.26
-0.245
-0.225
-0.2
-0.205
-0.2
-0.21
-0.2
-0.195
-0.19
-0.19
-0.19
-0.19
-0.18
-0.175
-0.18
-0.175
-0.195
-0.21
-0.185
-0.18
-0.175
-0.175
-0.185
-0.195
-0.195
-0.185
-0.18
-0.2
-0.2
-0.195
-0.19
-0.18
-0.185
-0.185
-0.205
-0.21
-0.2
-0.195
-0.19
-0.195
-0.2
-0.215
-0.215
-0.19
-0.2
-0.2
-0.21
-0.215
-0.215
-0.21
-0.205
-0.215
-0.225
-0.23
-0.21
-0.215
-0.215
-0.21
-0.225
-0.235
-0.23
-0.21
-0.215
-0.22
-0.225
-0.24
-0.22
-0.22
-0.22
-0.24
-0.22
-0.225
-0.215
-0.205
-0.21
-0.215
-0.23
-0.225
-0.21
-0.215
-0.205
-0.2
-0.215
-0.235
-0.23
-0.21
-0.205
-0.215
-0.22
-0.225
-0.215
-0.215
-0.195
-0.195
-0.205
-0.23
-0.215
-0.205
-0.2
-0.2
-0.225
-0.21
-0.205
-0.2
-0.19
-0.205
-0.205
-0.22
-0.21
-0.19
-0.195
-0.19
-0.2
-0.21
-0.205
-0.185
-0.175
-0.17
-0.18
-0.185
-0.175
-0.16
-0.155
-0.155
-0.16
-0.165
-0.145
-0.125
-0.13
-0.14
-0.155
-0.16
-0.145
-0.135
-0.145
-0.165
-0.175
-0.185
-0.18
-0.175
-0.175
-0.175
-0.185
-0.195
-0.19
-0.19
-0.175
-0.195
-0.2
-0.21
-0.195
-0.185
-0.185
-0.2
-0.215
-0.215
-0.205
-0.205
-0.2
-0.2
-0.215
-0.215
-0.225
-0.2
-0.205
-0.205
-0.22
-0.245
-0.26
-0.285
-0.305
-0.355
-0.37
-0.35
-0.265
-0.115
-0.01
0.095
0.185
0.27
0.395
0.505
0.62
0.7
0.735
0.705
0.61
0.415
0.135
-0.155
-0.325
-0.375
-0.325
-0.27
-0.245
-0.25
-0.25
-0.25
-0.25
-0.25
-0.235
-0.245
-0.25
-0.25
-0.245
-0.24
-0.245
-0.235
-0.245
-0.255
-0.24
-0.225
-0.245
-0.235
-0.245
-0.26
-0.245
-0.24
-0.225
-0.23
-0.245
-0.245
-0.235
-0.22
-0.23
-0.23
-0.23
-0.235
-0.225
-0.22
-0.22
-0.22
-0.235
-0.24
-0.22
-0.21
-0.205
-0.22
-0.23
-0.245
-0.24
-0.23
-0.22
-0.24
-0.25
-0.26
-0.245
-0.24
-0.24
-0.235
-0.255
-0.26
-0.25
-0.255
-0.25
-0.25
-0.275
-0.275
-0.27
-0.265
-0.275
-0.28
-0.295
-0.32
-0.315
-0.305
-0.305
-0.32
-0.34
-0.355
-0.35
-0.34
-0.345
-0.34
-0.35
-0.365
-0.36
-0.35
-0.35
-0.36
-0.375
-0.38
-0.385
-0.38
-0.36
-0.355
-0.37
-0.37
-0.365
-0.345
-0.335
-0.33
-0.315
-0.31
-0.285
-0.27
-0.26
-0.255
-0.265
-0.26
-0.24
-0.225
-0.225
-0.22
-0.23
-0.23
-0.235
-0.21
-0.2
-0.215
-0.215
-0.23
-0.23
-0.225
-0.22
-0.215
-0.22
-0.245
-0.22
-0.225
-0.23
-0.23
-0.235
-0.24
-0.235
-0.215
-0.225
-0.23
-0.24
-0.245
-0.245
-0.245
-0.235
-0.245
-0.245
-0.25
-0.245
-0.245
-0.245
-0.25
-0.265
-0.265
-0.265
-0.245
-0.235
-0.245
-0.26
-0.265
-0.26
-0.255
-0.245
-0.25
-0.255
-0.27
-0.265
-0.25
-0.265
-0.265
-0.27
-0.28
-0.265
-0.25
-0.255
-0.27
-0.27
-0.275
-0.265
-0.245
-0.245
-0.265
-0.28
-0.275
-0.285
-0.27
-0.27
-0.26
-0.28
-0.28
-0.28
-0.26
-0.265
-0.26
-0.28
-0.275
-0.275
-0.255
-0.26
-0.27
-0.27
-0.29
-0.275
-0.255
-0.255
-0.255
-0.26
-0.28
-0.285
-0.275
-0.265
-0.275
-0.28
-0.29
-0.265
-0.255
-0.255
-0.245
-0.24
-0.255
-0.26
-0.225
-0.23
-0.225
-0.25
-0.255
-0.255
-0.25
-0.245
-0.23
-0.22
-0.23
-0.22
-0.21
-0.225
-0.235
-0.25
-0.255
-0.26
-0.235
-0.25
-0.255
-0.27
-0.29
-0.285
-0.28
-0.28
-0.28
-0.29
-0.29
-0.285
-0.275
-0.275
-0.28
-0.29
-0.295
-0.3
-0.295
-0.29
-0.295
-0.305
-0.29
-0.305
-0.295
-0.285
-0.28
-0.285
-0.295
-0.29
-0.29
-0.295
-0.315
-0.33
-0.345
-0.385
-0.395
-0.405
-0.365
-0.3
-0.215
-0.12
-0.04
0.045
0.14
0.245
0.34
0.38
0.24
-0.05
-0.33
-0.45
-0.435
-0.36
-0.34
-0.32
-0.32
-0.335
-0.345
-0.33
-0.335
-0.325
-0.315
-0.34
-0.335
-0.325
-0.32
-0.315
-0.325
-0.325
-0.335
-0.335
-0.33
-0.31
-0.31
-0.31
-0.32
-0.33
-0.305
-0.31
-0.31
-0.33
-0.33
-0.32
-0.315
-0.31
-0.31
-0.32
-0.325
-0.315
-0.3
-0.29
-0.31
-0.31
-0.33
-0.325
-0.305
-0.31
-0.315
-0.335
-0.355
-0.335
-0.32
-0.32
-0.33
-0.325
-0.335
-0.325
-0.32
-0.33
-0.325
-0.335
-0.335
-0.35
-0.345
-0.34
-0.34
-0.36
-0.365
-0.365
-0.355
-0.36
-0.365
-0.39
-0.41
-0.395
-0.385
-0.375
-0.38
-0.405
-0.42
-0.42
-0.4
-0.4
-0.425
-0.45
-0.455
-0.445
-0.44
-0.445
-0.455
-0.465
-0.475
-0.47
-0.455
-0.425
-0.425
-0.43
-0.42
-0.405
-0.38
-0.37
-0.355
-0.35
-0.34
-0.32
-0.3
-0.3
-0.29
-0.29
-0.295
-0.28
-0.265
-0.27
-0.265
-0.285
-0.285
-0.275
-0.27
-0.255
-0.265
-0.275
-0.285
-0.28
-0.265
-0.265
-0.27
-0.28
-0.285
-0.29
-0.275
-0.28
-0.275
-0.285
-0.29
-0.275
-0.265
-0.27
-0.27
-0.28
-0.3
-0.295
-0.28
-0.265
-0.28
-0.285
-0.295
-0.3
-0.285
-0.29
-0.29
-0.305
-0.31
-0.305
-0.29
-0.295
-0.29
-0.3
-0.3
-0.31
-0.3
-0.29
-0.305
-0.305
-0.31
-0.305
-0.29
-0.285
-0.295
-0.305
-0.31
-0.3
-0.285
-0.29
-0.28
-0.295
-0.305
-0.3
-0.3
-0.285
-0.28
-0.28
-0.295
-0.295
-0.285
-0.29
-0.29
-0.295
-0.295
-0.29
-0.28
-0.27
-0.28
-0.29
-0.285
-0.295
-0.285
-0.285
-0.285
-0.3
-0.3
-0.29
-0.285
-0.275
-0.275
-0.29
-0.3
-0.285
-0.27
-0.26
-0.255
-0.255
-0.265
-0.26
-0.24
-0.245
-0.235
-0.24
-0.245
-0.215
-0.215
-0.215
-0.21
-0.23
-0.225
-0.22
-0.225
-0.225
-0.24
-0.25
-0.25
-0.26
-0.245
-0.24
-0.25
-0.255
-0.27
-0.27
-0.255
-0.255
-0.255
-0.265
-0.27
-0.26
-0.26
-0.26
-0.265
-0.275
-0.275
-0.27
-0.26
-0.26
-0.265
-0.275
-0.28
-0.27
-0.28
-0.26
-0.275
-0.315
-0.36
-0.37
-0.37
-0.395
-0.42
-0.41
-0.36
-0.28
-0.185
-0.085
-0.005
0.03
0.06
0.14
0.25
0.375
0.475
0.525
0.435
0.17
-0.145
-0.36
-0.415
-0.38
-0.34
-0.305
-0.31
-0.29
-0.29
-0.305
-0.315
-0.305
-0.295
-0.285
-0.295
-0.305
-0.315
-0.305
-0.29
-0.29
-0.29
-0.3
-0.31
-0.305
-0.295
-0.29
-0.29
-0.305
-0.3
-0.305
-0.305
-0.29
-0.295
-0.29
-0.305
-0.29
-0.285
-0.28
-0.29
-0.295
-0.31
-0.3
-0.28
-0.275
-0.28
-0.28
-0.295
-0.285
-0.28
-0.28
-0.275
-0.295
-0.295
-0.295
-0.275
-0.275
-0.275
-0.3
-0.31
-0.3
-0.29
-0.29
-0.29
-0.305
-0.305
-0.32
-0.31
-0.305
-0.305
-0.315
-0.34
-0.335
-0.325
-0.335
-0.345
-0.36
-0.37
-0.375
-0.37
-0.375
-0.39
-0.41
-0.415
-0.415
-0.42
-0.405
-0.425
-0.43
-0.445
-0.44
-0.43
-0.425
-0.415
-0.42
-0.425
-0.415
-0.39
-0.375
-0.355
-0.35
-0.34
-0.325
-0.31
-0.3
-0.285
-0.275
-0.275
-0.26
-0.235
-0.225
-0.24
-0.24
-0.235
-0.22
-0.21
-0.2
-0.2
-0.21
-0.225
-0.225
-0.21
-0.2
-0.22
-0.22
-0.23
-0.225
-0.21
-0.205
-0.21
-0.23
-0.235
-0.235
-0.21
-0.22
-0.22
-0.23
-0.24
-0.235
-0.235
-0.22
-0.225
-0.235
-0.235
-0.24
-0.225
-0.24
-0.24
-0.24
-0.25
-0.255
-0.24
-0.24
-0.245
-0.255
-0.26
-0.245
-0.24
-0.245
-0.24
-0.26
-0.27
-0.275
-0.25
-0.245
-0.25
-0.25
-0.255
-0.26
-0.25
-0.26
-0.255
-0.27
-0.275
-0.265
-0.25
-0.25
-0.25
-0.26
-0.27
-0.275
-0.265
-0.255
-0.25
-0.255
-0.265
-0.26
-0.255
-0.25
-0.245
-0.27
-0.27
-0.26
-0.245
-0.245
-0.255
-0.25
-0.27
-0.26
-0.25
-0.24
-0.245
-0.26
-0.255
-0.26
-0.245
-0.24
-0.255
-0.26
-0.26
-0.25
-0.245
-0.245
-0.25
-0.245
-0.25
-0.225
-0.22
-0.205
-0.21
-0.215
-0.22
-0.22
-0.2
-0.195
-0.195
-0.185
-0.2
-0.185
-0.185
-0.18
-0.18
-0.19
-0.195
-0.21
-0.2
-0.21
-0.205
-0.22
-0.22
-0.22
-0.205
-0.215
-0.22
-0.245
-0.24
-0.24
-0.23
-0.225
-0.235
-0.25
-0.245
-0.255
-0.235
-0.235
-0.235
-0.245
-0.255
-0.25
-0.24
-0.24
-0.245
-0.245
-0.245
-0.25
-0.24
-0.245
-0.265
-0.295
-0.33
-0.335
-0.34
-0.355
-0.38
-0.42
-0.415
-0.33
-0.21
-0.07
0.055
0.17
0.27
0.41
0.555
0.675
0.705
0.505
0.145
-0.18
-0.29
-0.285
-0.265
-0.27
-0.285
-0.275
-0.27
-0.27
-0.275
-0.285
-0.29
-0.285
-0.28
-0.28
-0.285
-0.305
-0.31
-0.29
-0.29
-0.27
-0.275
-0.29
-0.3
-0.295
-0.295
-0.285
-0.275
-0.29
-0.3
-0.285
-0.285
-0.28
-0.29
-0.285
-0.295
-0.285
-0.275
-0.265
-0.275
-0.29
-0.29
-0.275
-0.275
-0.285
-0.27
-0.28
-0.305
-0.295
-0.285
-0.275
-0.275
-0.285
-0.3
-0.3
-0.295
-0.29
-0.3
-0.315
-0.295
-0.29
-0.3
-0.295
-0.3
-0.315
-0.335
-0.33
-0.325
-0.32
-0.33
-0.34
-0.345
-0.345
-0.355
-0.35
-0.365
-0.375
-0.385
-0.395
-0.375
-0.385
-0.4
-0.415
-0.42
-0.43
-0.42
-0.42
-0.42
-0.445
-0.45
-0.445
-0.435
-0.43
-0.425
-0.425
-0.43
-0.42
-0.405
-0.39
-0.36
-0.35
-0.345
-0.33
-0.315
-0.305
-0.3
-0.3
-0.31
-0.28
-0.255
-0.25
-0.245
-0.255
-0.255
-0.24
-0.235
-0.22
-0.225
-0.22
-0.235
-0.24
-0.23
-0.215
-0.225
-0.23
-0.23
-0.24
-0.235
-0.225
-0.225
-0.245
-0.255
-0.24
-0.23
-0.245
-0.245
-0.25
-0.26
-0.255
-0.23
-0.23
-0.245
-0.255
-0.27
-0.26
-0.255
-0.255
-0.25
-0.26
-0.265
-0.26
-0.255
-0.25
-0.265
-0.25
-0.26
-0.265
-0.255
-0.255
-0.265
-0.28
-0.285
-0.275
-0.26
-0.265
-0.275
-0.28
-0.28
-0.275
-0.265
-0.265
-0.265
-0.275
-0.28
-0.28
