80
0.226
0.335
0.224
0.312
0.225
0.303
0.241
0.263
0.282
0.228
0.439
0.585
0.397
0.033
0.161
0.179
0.315
0.229
0.336
0.235
0.334
0.245
0.334
0.272
0.293
0.343
0.267
0.376
0.283
0.285
0.408
0.273
0.33
0.252
0.203
0.2
0.148
0.189
0.133
0.201
0.145
0.208
0.191
0.187
0.226
0.172
0.248
0.176
0.258
0.181
0.26
0.187
0.257
0.213
0.244
0.221
0.231
0.26
0.197
0.281
0.201
0.283
0.21
0.286
0.192
0.278
0.204
0.281
0.228
0.232
0.405
0.576
0.5
0.033
0.119
0.163
0.292
0.231
0.296
0.293
0.262
0.32
0.248
0.348
0.248
0.37
0.259
0.394
0.279
0.416
0.316
0.399
0.341
0.301
0.274
0.183
0.214
0.142
0.198
0.135
0.206
0.143
0.207
0.169
0.218
0.227
0.187
0.245
0.189
0.254
0.185
0.262
0.186
0.259
0.2
0.256
0.209
0.254
0.208
0.244
0.222
0.245
0.253
0.215
0.295
0.228
0.269
0.199
0.291
0.255
0.217
0.317
0.728
0.216
0.069
0.124
0.25
0.226
0.289
0.255
0.28
0.312
0.239
0.334
0.237
0.36
0.257
0.334
0.357
0.321
0.392
0.311
0.402
0.272
0.332
0.204
0.235
0.149
0.203
0.162
0.182
0.191
0.168
0.224
0.167
0.243
0.174
0.241
0.174
0.252
0.208
0.224
0.239
0.206
0.259
0.192
0.274
0.193
0.284
0.197
0.29
0.21
0.209
0.294
0.217
0.3
0.219
0.338
0.224
0.311
0.24
0.265
0.249
0.276
0.215
0.352
0.463
0.688
0.074
0.131
0.176
0.28
0.228
0.294
0.245
0.305
0.25
0.294
0.305
0.26
0.332
0.246
0.385
0.267
0.402
0.291
0.393
0.301
0.361
0.303
0.227
0.228
0.151
0.21
0.139
0.209
0.145
0.215
0.165
0.224
0.19
0.207
0.222
0.184
0.251
0.191
0.263
0.185
0.263
0.191
0.274
0.196
0.277
0.201
0.271
0.21
0.273
0.21
0.268
0.221
0.255
0.237
0.252
0.284
0.212
0.329
0.222
0.308
0.229
0.25
0.24
0.252
0.255
0.244
0.263
0.295
0.669
0.342
0.096
0.125
0.247
0.248
0.294
0.264
0.284
0.307
0.266
0.341
0.239
0.363
0.249
0.378
0.271
0.401
0.315
0.31
0.403
0.266
0.369
0.212
0.238
0.175
0.177
0.182
0.155
0.208
0.148
0.229
0.164
0.236
0.175
0.248
0.207
0.226
0.227
0.21
0.252
0.201
0.258
0.201
0.274
0.196
0.284
0.202
0.292
0.201
0.289
0.24
0.239
0.285
0.215
0.307
0.209
0.315
0.233
0.306
0.256
0.261
0.247
0.242
0.286
0.212
0.31
0.232
0.558
0.659
0.187
0.046
0.167
0.267
0.227
0.344
0.235
0.35
0.256
0.342
0.289
0.33
0.319
0.324
0.335
0.348
0.371
0.265
0.362
0.296
0.362
0.315
0.354
0.378
0.351
0.413
0.328
0.444
0.291
0.396
0.234
0.263
0.182
0.215
0.179
0.199
0.2
0.191
0.231
0.179
0.248
0.186
0.266
0.193
0.277
0.199
0.275
0.209
0.277
0.225
0.25
0.249
0.245
0.263
0.223
0.288
0.213
0.316
0.222
0.339
0.233
0.322
0.237
0.307
0.239
0.282
0.256
0.268
0.273
0.4
0.741
0.393
0.083
0.096
0.246
0.223
0.352
0.245
0.373
0.264
0.37
0.287
0.361
0.311
0.359
0.347
0.349
0.392
0.345
0.422
0.329
0.442
0.295
0.388
0.224
0.269
0.168
0.224
0.15
0.215
0.179
0.209
0.208
0.213
0.224
0.204
0.257
0.189
0.275
0.198
0.276
0.208
0.263
0.232
0.253
0.251
0.238
0.263
0.223
0.294
0.215
0.311
0.218
0.334
0.23
0.336
0.219
0.311
0.227
0.301
0.238
0.289
0.248
0.289
0.557
0.639
0.17
0.054
0.225
0.211
0.338
0.24
0.357
0.256
0.362
0.27
0.354
0.298
0.344
0.335
0.302
0.396
0.297
0.444
0.302
0.447
0.294
0.402
0.249
0.27
0.199
0.2
0.199
0.186
0.204
0.175
0.228
0.175
0.245
0.183
0.26
0.188
0.271
0.197
0.277
0.207
0.271
0.224
0.255
0.239
0.258
0.236
0.303
0.25
0.261
0.272
0.238
0.304
0.219
0.314
0.213
0.474
0.642
0.438
0.061
0.178
0.229
0.276
0.3
0.254
0.335
0.249
0.352
0.247
0.372
0.255
0.387
0.275
0.401
0.325
0.404
0.36
0.385
0.383
0.332
0.347
0.238
0.248
0.169
0.217
0.148
0.219
0.149
0.229
0.165
0.243
0.182
0.252
0.2
0.254
0.229
0.248
0.24
0.235
0.257
0.22
0.276
0.201
0.295
0.205
0.294
0.216
0.268
0.262
0.24
0.287
0.242
0.307
0.226
0.307
0.213
0.311
0.218
0.305
0.232
0.351
0.517
0.735
0.174
0.07
0.198
0.224
0.331
0.239
0.371
0.26
0.372
0.271
0.364
0.3
0.345
0.368
0.324
0.411
0.314
0.46
0.322
0.467
0.31
0.407
0.245
0.266
0.198
0.194
0.187
0.181
0.204
0.168
0.234
0.17
0.251
0.183
0.265
0.196
0.273
0.22
0.256
0.235
0.246
0.252
0.22
0.28
0.215
0.284
0.21
0.303
0.212
0.316
0.218
0.327
0.238
0.314
0.242
0.282
0.26
0.254
0.288
0.222
0.314
0.237
0.556
0.658
0.332
0.025
0.174
0.197
0.329
0.256
0.326
0.293
0.308
0.318
0.301
0.348
0.291
0.376
0.286
0.418
0.292
0.454
0.33
0.452
0.33
0.411
0.295
0.258
0.224
0.172
0.217
0.147
0.223
0.155
0.235
0.173
0.245
0.192
0.245
0.216
0.243
0.233
0.237
0.254
0.229
0.254
0.221
0.278
0.211
0.289
0.208
0.3
0.212
0.308
0.219
0.304
0.245
0.255
0.298
0.252
0.322
0.235
0.319
0.217
0.316
0.218
0.317
0.226
0.307
0.383
0.72
0.393
0.079
0.156
0.213
0.327
0.227
0.354
0.245
0.362
0.259
0.349
0.28
0.347
0.303
0.344
0.358
0.334
0.409
0.32
0.449
0.299
0.429
0.255
0.32
0.193
0.231
0.177
0.188
0.2
0.177
0.218
0.173
0.248
0.18
0.254
0.188
0.272
0.201
0.273
0.216
0.267
0.24
0.258
0.244
0.232
0.266
0.207
0.289
0.207
0.303
0.209
0.308
0.216
0.311
0.224
0.302
0.24
0.317
0.259
0.261
0.291
0.23
0.293
0.22
0.307
0.216
0.338
0.374
0.77
0.208
0.116
0.156
0.273
0.246
0.302
0.278
0.297
0.308
0.277
0.339
0.257
0.351
0.261
0.381
0.268
0.424
0.3
0.439
0.322
0.405
0.36
0.326
0.259
0.229
0.21
0.177
0.203
0.161
0.217
0.161
0.234
0.168
0.248
0.18
0.261
0.192
0.27
0.202
0.264
0.218
0.255
0.235
0.238
0.248
0.237
0.263
0.213
0.294
0.209
0.307
0.22
0.304
0.231
0.313
0.251
0.287
0.251
0.259
0.265
0.248
0.286
0.226
0.315
0.31
0.762
0.405
0.1
0.087
0.236
0.248
0.298
0.293
0.308
0.323
0.287
0.351
0.256
0.389
0.261
0.416
0.298
0.436
0.344
0.438
0.373
0.406
0.372
0.333
0.293
0.217
0.222
0.16
0.209
0.149
0.216
0.159
0.236
0.172
0.254
0.19
0.264
0.209
0.261
0.22
0.249
0.232
0.232
0.256
0.213
0.283
0.203
0.3
0.22
0.288
0.234
0.278
0.245
0.273
0.278
0.265
0.287
0.224
0.304
0.213
0.315
0.221
0.322
0.248
0.549
0.721
0.227
0.056
0.156
0.238
0.27
0.314
0.253
0.36
0.254
0.377
0.255
0.384
0.271
0.396
0.294
0.408
0.334
0.434
0.351
0.412
0.402
0.308
0.358
0.214
0.246
0.153
0.217
0.142
0.22
0.16
0.23
0.178
0.236
0.2
0.234
0.218
0.229
0.238
0.219
0.259
0.215
0.269
0.202
0.286
0.201
0.293
0.213
0.295
0.235
0.268
0.253
0.252
0.278
0.26
0.302
0.225
0.306
0.213
0.319
0.224
0.303
0.234
0.334
0.498
0.755
0.208
0.065
0.177
0.225
0.292
0.247
0.348
0.247
0.367
0.249
0.37
0.253
0.391
0.271
0.402
0.313
0.415
0.351
0.418
0.38
0.375
0.373
0.274
0.273
0.192
0.225
0.154
0.212
0.15
0.22
0.158
0.238
0.173
0.252
0.193
0.258
0.216
0.238
0.243
0.206
0.29
0.222
0.302
0.239
0.273
0.282
0.253
0.286
0.229
0.295
0.222
0.306
0.219
0.322
0.225
0.472
0.675
0.385
0.063
0.143
0.231
0.242
0.305
0.239
0.361
0.242
0.37
0.249
0.377
0.269
0.359
0.35
0.336
0.407
0.324
0.462
0.313
0.446
0.289
0.35
0.213
0.23
0.172
0.208
0.178
0.186
0.197
0.189
0.219
0.188
0.242
0.19
0.26
0.19
0.278
0.201
0.276
0.215
0.272
0.222
0.257
0.256
0.237
0.267
0.225
0.294
0.216
0.315
0.218
0.315
0.24
0.333
0.257
0.272
0.261
0.259
0.28
0.228
0.306
0.221
0.432
0.551
0.705
0.078
0.129
0.158
0.296
0.242
0.316
0.299
0.292
0.325
0.277
0.369
0.262
0.39
0.263
0.417
0.309
0.438
0.329
0.443
0.385
0.351
0.365
0.232
0.259
0.16
0.216
0.145
0.216
0.152
0.229
0.163
0.238
0.179
0.238
0.211
0.239
0.229
0.245
0.251
0.217
0.27
0.214
0.276
0.21
0.292
0.207
0.299
0.216
0.302
0.224
0.294
0.255
0.274
0.292
0.238
0.3
0.219
0.3
0.215
0.317
0.223
0.301
0.276
0.625
0.668
0.149
0.092
0.189
0.275
0.248
0.333
0.24
0.347
0.244
0.362
0.25
0.376
0.261
0.396
0.285
0.417
0.311
0.427
0.392
0.402
0.387
0.344
0.328
0.221
0.24
0.154
0.218
0.145
0.217
0.153
0.231
0.179
0.232
0.215
0.22
0.24
0.215
0.268
0.199
0.28
0.201
0.29
0.206
0.291
0.206
0.296
0.214
0.29
0.228
0.283
0.243
0.272
0.289
0.257
0.296
0.226
0.302
0.218
0.314
0.215
0.312
0.217
0.478
0.676
0.548
0.059
0.143
0.222
0.243
0.317
0.242
0.346
0.243
0.36
0.243
0.38
0.258
0.385
0.3
0.38
0.382
0.374
0.424
0.361
0.44
0.31
0.378
0.216
0.253
0.158
0.216
0.147
0.215
0.169
0.211
0.212
0.202
0.235
0.197
0.262
0.193
0.275
0.201
0.285
0.219
0.267
0.232
0.258
0.253
0.227
0.272
0.227
0.293
0.214
0.315
0.222
0.337
0.234
0.283
0.254
0.264
0.269
0.242
0.294
0.221
0.51
0.667
0.447
0.036
0.17
0.223
0.281
0.267
0.287
0.309
0.265
0.352
0.248
0.361
0.256
0.39
0.265
0.418
0.334
0.426
0.38
0.417
0.39
0.347
0.327
0.229
0.237
0.156
0.215
0.144
0.219
0.151
0.228
0.168
0.232
0.202
0.229
0.239
0.212
0.255
0.21
0.273
0.2
0.291
0.211
0.285
0.217
0.284
0.24
0.272
0.25
0.264
0.278
0.246
0.274
0.224
0.288
0.212
0.313
0.215
0.311
0.408
0.769
0.436
0.054
0.129
0.202
0.288
0.245
0.336
0.24
0.365
0.25
0.352
0.279
0.33
0.333
0.328
0.395
0.334
0.45
0.34
0.468
0.321
0.437
0.256
0.278
0.196
0.204
0.178
0.181
0.193
0.175
0.221
0.167
0.24
0.178
0.26
0.19
0.273
0.214
0.268
0.225
0.252
0.236
0.24
0.263
0.211
0.293
0.21
0.315
0.223
0.323
0.219
0.293
0.234
0.285
0.249
0.252
0.297
0.239
0.625
0.721
0.283
0.016
0.175
0.193
0.321
0.25
0.32
0.297
0.305
0.318
0.292
0.348
0.275
0.375
0.283
0.422
0.32
0.448
0.322
0.473
0.326
0.437
0.265
0.286
0.191
0.193
0.193
0.155
0.208
0.151
0.227
0.162
0.241
0.176
0.258
0.192
0.266
0.218
0.251
0.246
0.24
0.252
0.232
0.264
0.228
0.285
0.231
0.305
0.222
0.302
0.209
0.295
0.211
0.296
0.218
0.3
0.224
0.435
0.717
0.543
0.076
0.098
0.254
0.221
0.332
0.236
0.357
0.257
0.347
0.275
0.355
0.294
0.35
0.351
0.352
0.41
0.353
0.446
0.347
0.459
0.302
0.382
0.214
0.251
0.154
0.212
0.145
0.211
0.166
0.21
0.189
0.212
0.214
0.219
0.234
0.214
0.258
0.211
0.274
0.207
0.283
0.208
0.3
0.214
0.307
0.24
0.297
0.27
0.25
0.268
0.239
0.282
0.227
0.219
0.323
0.234
0.36
0.251
0.349
0.3
0.322
0.352
0.288
0.4
0.297
0.459
0.331
0.468
0.348
0.423
0.307
0.257
0.238
0.156
0.209
0.148
0.222
0.16
0.236
0.186
0.234
0.213
0.224
0.242
0.22
0.255
0.213
0.272
0.206
0.287
0.207
0.298
0.227
0.304
0.234
0.26
0.254
0.237
0.269
0.22
0.292
0.208
0.405
0.626
0.543
0.074
0.151
0.215
0.249
0.27
0.24
0.326
0.24
0.349
0.239
0.364
0.247
0.383
0.258
0.4
0.286
0.428
0.33
0.414
0.374
0.351
0.331
0.246
0.238
0.168
0.22
0.149
0.223
0.156
0.238
0.174
0.246
0.19
0.252
0.216
0.247
0.232
0.227
0.258
0.212
0.292
0.201
0.296
0.211
0.308
0.212
0.28
0.22
0.28
0.224
0.267
0.252
0.241
0.444
0.654
0.347
0.044
0.198
0.194
0.314
0.229
0.337
0.255
0.333
0.276
0.324
0.309
0.312
0.34
0.305
0.374
0.304
0.424
0.306
0.434
0.301
0.411
0.253
0.306
0.193
0.223
0.182
0.188
0.202
0.197
0.222
0.199
0.233
0.196
0.252
0.192
0.272
0.195
0.282
0.204
0.276
0.221
0.27
0.233
0.268
0.239
0.253
0.294
0.239
0.31
0.228
0.29
0.211
0.302
0.211
0.303
0.211
0.312
0.318
0.734
0.347
0.112
0.14
0.237
0.289
0.258
0.347
0.238
0.366
0.245
0.372
0.25
0.381
0.27
0.387
0.332
0.384
0.381
0.372
0.388
0.362
0.377
0.284
0.288
0.203
0.237
0.163
0.225
0.156
0.238
0.174
0.245
0.196
0.246
0.232
0.232
0.25
0.22
0.265
0.21
0.276
0.205
0.281
0.203
0.297
0.214
0.281
0.24
0.265
0.261
0.251
0.278
0.239
0.297
0.231
0.32
0.231
0.33
0.218
0.318
0.226
0.297
0.255
0.276
0.281
0.403
0.733
0.266
0.107
0.136
0.27
0.222
0.337
0.234
0.36
0.247
0.363
0.256
0.361
0.272
0.348
0.3
0.347
0.347
0.335
0.378
0.295
0.419
0.272
0.386
0.228
0.281
0.186
0.228
0.173
0.216
0.201
0.199
0.237
0.198
0.256
0.196
0.263
0.194
0.282
0.2
0.279
0.206
0.267
0.218
0.27
0.223
0.267
0.238
0.273
0.237
0.251
0.253
0.242
0.275
0.23
0.293
0.231
0.309
0.231
0.325
0.217
0.322
0.216
0.313
0.224
0.292
0.241
0.363
0.589
0.476
0.1
0.112
0.264
0.222
0.339
0.244
0.359
0.273
0.327
0.288
0.309
0.325
0.326
0.364
0.299
0.397
0.285
0.432
0.287
0.432
0.282
0.385
0.248
0.243
0.208
0.193
0.204
0.169
0.229
0.167
0.251
0.186
0.248
0.221
0.236
0.232
0.229
0.251
0.214
0.267
0.205
0.273
0.199
0.294
0.208
0.286
0.234
0.279
0.249
0.268
0.28
0.264
0.28
0.234
0.289
0.217
0.319
0.216
0.319
0.218
0.437
0.572
0.647
0.081
0.107
0.167
0.28
0.268
0.307
0.315
0.308
0.353
0.288
0.37
0.273
0.396
0.273
0.424
0.31
0.427
0.345
0.408
0.363
0.368
0.34
0.272
0.249
0.196
0.221
0.162
0.223
0.161
0.236
0.172
0.25
0.205
0.239
0.224
0.239
0.241
0.226
0.259
0.214
0.268
0.203
0.287
0.209
0.293
0.222
0.28
0.236
0.274
0.259
0.275
0.28
0.231
0.294
0.216
0.321
0.216
0.318
0.228
0.491
0.661
0.354
0.056
0.154
0.226
0.255
0.326
0.246
0.369
0.248
0.378
0.254
0.381
0.262
0.399
0.27
0.303
0.385
0.312
0.415
0.299
0.412
0.269
0.357
0.206
0.261
0.162
0.225
0.161
0.222
0.183
0.231
0.208
0.233
0.226
0.225
0.244
0.213
0.257
0.199
0.263
0.237
0.231
0.251
0.216
0.266
0.211
0.29
0.209
0.303
0.22
0.325
0.238
0.285
0.245
0.242
0.278
0.229
0.296
0.231
0.523
0.623
0.232
0.062
0.216
0.235
0.285
0.281
0.294
0.319
0.28
0.336
0.269
0.369
0.261
0.398
0.27
0.419
0.296
0.424
0.323
0.399
0.36
0.334
0.303
0.228
0.181
0.264
0.192
0.276
0.21
0.275
0.222
0.269
0.23
0.256
0.248
0.236
0.281
0.219
0.291
0.221
0.296
0.227
0.331
0.221
0.317
0.214
0.308
0.234
0.3
0.239
0.288
0.329
0.603
0.544
0.096
0.158
0.191
0.318
0.229
0.351
0.258
0.357
0.278
0.337
0.323
0.287
0.357
0.28
0.393
0.283
0.434
0.291
0.44
0.296
0.411
0.265
0.29
0.215
0.196
0.202
0.177
0.211
0.167
0.242
0.173
0.254
0.183
0.255
0.207
0.252
0.221
0.26
0.224
0.245
0.241
0.257
0.239
0.235
0.272
0.219
0.286
0.21
0.313
0.223
0.328
0.227
0.285
0.26
0.249
0.281
0.222
0.302
0.237
0.616
0.554
0.154
0.095
0.215
0.255
0.281
0.305
0.25
0.355
0.243
0.382
0.267
0.379
0.303
0.349
0.358
0.351
0.401
0.331
0.428
0.309
0.421
0.257
0.319
0.184
0.234
0.162
0.215
0.172
0.201
0.205
0.203
0.227
0.193
0.244
0.192
0.26
0.193
0.278
0.204
0.282
0.217
0.255
0.234
0.247
0.253
0.242
0.271
0.226
0.298
0.23
0.323
0.22
0.306
0.216
0.312
0.227
0.309
0.253
0.313
0.514
0.735
0.237
0.043
0.159
0.21
0.35
0.26
0.369
0.288
0.357
0.304
0.324
0.366
0.305
0.395
0.304
0.433
0.299
0.459
0.309
0.455
0.305
0.405
0.242
0.283
0.188
0.223
0.17
0.204
0.189
0.201
0.206
0.201
0.243
0.192
0.259
0.19
0.272
0.195
0.278
0.193
0.28
0.215
0.259
0.238
0.249
0.249
0.231
0.29
0.217
0.308
0.227
0.317
0.222
0.304
0.219
0.308
0.223
0.304
0.24
0.33
0.535
0.725
0.176
0.069
0.179
0.22
0.303
0.243
0.348
0.244
0.366
0.255
0.376
0.273
0.363
0.331
0.347
0.398
0.306
0.453
0.316
0.448
0.307
0.378
0.239
0.253
0.187
0.194
0.196
0.167
0.212
0.172
0.233
0.173
0.253
0.183
0.266
0.192
0.275
0.215
0.254
0.232
0.262
0.233
0.243
0.242
0.233
0.267
0.244
0.264
0.229
0.301
0.232
0.305
0.212
0.306
0.216
0.299
0.249
0.252
0.302
0.519
0.745
0.175
0.104
0.146
0.285
0.225
0.35
0.245
0.363
0.264
0.361
0.282
0.357
0.303
0.332
0.377
0.32
0.427
0.317
0.46
0.312
0.448
0.277
0.341
0.211
0.216
0.187
0.184
0.194
0.182
0.216
0.17
0.24
0.177
0.26
0.187
0.272
0.207
0.261
0.221
0.255
0.236
0.258
0.252
0.233
0.272
0.213
0.296
0.213
0.325
0.218
0.312
0.21
0.305
0.242
0.267
0.254
0.26
0.274
0.408
0.733
0.221
0.103
0.134
0.287
0.226
0.343
0.256
0.336
0.276
0.34
0.297
0.319
0.342
0.279
0.393
0.298
0.435
0.314
0.451
0.311
0.453
0.279
0.37
0.208
0.254
0.163
0.222
0.164
0.216
0.181
0.217
0.198
0.214
0.241
0.199
0.26
0.194
0.278
0.201
0.284
0.204
0.286
0.221
0.279
0.23
0.263
0.265
0.237
0.276
0.228
0.303
0.215
0.333
0.224
0.335
0.22
0.313
0.233
0.299
0.239
0.297
0.266
0.26
0.573
0.567
0.172
0.073
0.242
0.229
0.297
0.289
0.265
0.346
0.248
0.362
0.247
0.374
0.258
0.397
0.285
0.41
0.326
0.423
0.371
0.389
0.374
0.315
0.29
0.217
0.226
0.166
0.216
0.152
0.228
0.178
0.226
0.21
0.218
0.224
0.218
0.245
0.206
0.272
0.199
0.282
0.201
0.284
0.207
0.287
0.216
0.285
0.231
0.271
0.243
0.236
0.268
0.22
0.301
0.215
0.318
0.217
0.333
0.231
0.333
0.234
0.28
0.253
0.263
0.266
0.243
0.3
0.257
0.623
0.54
0.145
0.226
0.289
0.265
0.335
0.252
0.374
0.246
0.378
0.265
0.368
0.293
0.35
0.412
0.284
0.446
0.311
0.439
0.335
0.386
0.278
0.26
0.211
0.186
0.194
0.167
0.206
0.162
0.232
0.169
0.253
0.192
0.256
0.209
0.257
0.241
0.226
0.254
0.22
0.27
0.22
0.296
0.233
0.291
0.263
0.267
0.298
0.247
0.292
0.231
0.304
0.223
0.315
0.221
0.315
0.27
0.684
0.575
0.153
0.051
0.216
0.227
0.335
0.28
0.318
0.318
0.29
0.346
0.274
0.376
0.273
0.4
0.283
0.433
0.305
0.458
0.32
0.455
0.33
0.385
0.296
0.224
0.226
0.169
0.208
0.152
0.219
0.155
0.238
0.168
0.251
0.192
0.254
0.218
0.252
0.236
0.229
0.259
0.2
0.286
0.205
0.288
0.215
0.288
0.226
0.281
0.237
0.258
0.28
0.241
0.295
0.237
0.323
0.228
0.324
0.216
0.316
0.227
0.306
0.236
0.293
0.324
0.637
0.564
0.08
0.116
0.177
0.349
0.281
0.31
0.335
0.285
0.389
0.268
0.421
0.297
0.438
0.363
0.395
0.382
0.333
0.335
0.189
0.232
0.187
0.196
0.193
0.189
0.218
0.178
0.243
0.183
0.26
0.189
0.27
0.205
0.264
0.225
0.244
0.245
0.23
0.265
0.221
0.273
0.21
0.293
0.21
0.306
0.214
0.308
0.225
0.296
0.25
0.263
0.277
0.245
0.326
0.228
0.32
0.22
0.313
0.241
0.298
0.251
0.258
0.372
0.605
0.523
0.055
0.167
0.185
0.326
0.229
0.341
0.259
0.329
0.301
0.29
0.321
0.281
0.355
0.275
0.383
0.283
0.414
0.306
0.434
0.297
0.433
0.271
0.34
0.215
0.24
0.183
0.206
0.182
0.198
0.2
0.188
0.239
0.179
0.264
0.189
0.274
0.205
0.256
0.237
0.238
0.249
0.225
0.268
0.203
0.297
0.208
0.291
0.227
0.283
0.243
0.27
0.261
0.255
0.28
0.239
0.305
0.228
0.304
0.221
0.322
0.229
0.335
0.236
0.316
0.242
0.29
0.262
0.258
0.285
0.245
0.481
0.642
0.278
0.052
0.22
0.204
0.327
0.237
0.337
0.256
0.332
0.29
0.287
0.351
0.255
0.374
0.262
0.407
0.279
0.426
0.311
0.421
0.339
0.34
0.306
0.24
0.235
0.181
0.216
0.157
0.221
0.156
0.234
0.164
0.246
0.178
0.257
0.195
0.263
0.209
0.262
0.227
0.252
0.244
0.232
0.272
0.21
0.283
0.204
0.294
0.204
0.304
0.222
0.295
0.239
0.271
0.265
0.262
0.289
0.243
0.322
0.222
0.309
0.218
0.32
0.221
0.316
0.232
0.358
0.485
0.741
0.166
0.067
0.194
0.219
0.329
0.242
0.373
0.247
0.38
0.254
0.382
0.263
0.38
0.306
0.382
0.356
0.369
0.419
0.337
0.431
0.312
0.409
0.246
0.292
0.182
0.229
0.155
0.215
0.177
0.21
0.217
0.193
0.234
0.199
0.248
0.195
0.27
0.194
0.283
0.204
0.277
0.217
0.27
0.226
0.262
0.258
0.239
0.285
0.218
0.314
0.227
0.299
0.253
0.296
0.287
0.245
0.295
0.219
0.306
0.215
0.316
0.223
0.408
0.619
0.631
0.097
0.096
0.197
0.248
0.31
0.254
0.363
0.249
0.373
0.26
0.383
0.274
0.387
0.316
0.383
0.36
0.369
0.419
0.337
0.429
0.303
0.385
0.227
0.27
0.174
0.212
0.174
0.206
0.177
0.214
0.216
0.195
0.239
0.199
0.26
0.192
0.274
0.199
0.281
0.207
0.264
0.224
0.252
0.243
0.24
0.256
0.237
0.271
0.228
0.29
0.215
0.315
0.217
0.326
0.247
0.296
0.248
0.272
0.254
0.255
0.266
0.246
0.29
0.296
0.7
0.414
0.111
0.099
0.255
0.235
0.319
0.268
0.315
0.294
0.307
0.322
0.291
0.35
0.265
0.393
0.267
0.426
0.302
0.423
0.353
0.361
0.382
0.28
0.289
0.194
0.237
0.15
0.225
0.166
0.228
0.178
0.232
0.211
0.23
0.226
0.222
0.24
0.209
0.259
0.202
0.275
0.203
0.285
0.202
0.293
0.212
0.288
0.226
0.277
0.232
0.248
0.29
0.217
0.298
0.224
0.329
0.22
0.315
0.217
0.304
0.238
0.291
0.257
0.262
0.478
0.659
0.279
0.054
0.208
0.21
0.331
0.241
0.346
0.263
0.356
0.267
0.348
0.31
0.296
0.347
0.282
0.398
0.282
0.439
0.292
0.446
0.3
0.401
0.265
0.28
0.225
0.176
0.257
0.184
0.274
0.193
0.282
0.216
0.277
0.227
0.259
0.256
0.24
0.252
0.235
0.268
0.218
0.306
0.211
0.315
0.217
0.317
0.223
0.337
0.241
0.315
0.247
0.28
0.266
0.234
0.304
0.221
0.317
0.336
0.755
0.257
0.1
0.105
0.26
0.262
0.296
0.283
0.288
0.328
0.268
0.357
0.259
0.372
0.257
0.407
0.281
0.423
0.344
0.42
0.374
0.394
0.352
0.315
0.275
0.226
0.213
0.177
0.203
0.163
0.219
0.163
0.236
0.172
0.254
0.189
0.258
0.202
0.27
0.212
0.268
0.218
0.254
0.231
0.242
0.252
0.227
0.261
0.226
0.284
0.212
0.311
0.212
0.317
0.217
0.335
0.23
0.332
0.23
0.312
0.238
0.298
0.231
0.302
0.248
0.346
0.583
0.681
0.149
0.054
0.206
0.217
0.341
0.241
0.369
0.249
0.376
0.258
0.382
0.271
0.392
0.311
0.367
0.377
0.377
0.416
0.37
0.413
0.347
0.394
0.254
0.284
0.192
0.225
0.149
0.217
0.149
0.228
0.165
0.239
0.194
0.237
0.213
0.228
0.251
0.202
0.268
0.2
0.278
0.199
0.287
0.199
0.289
0.21
0.287
0.227
0.28
0.239
0.291
0.255
0.282
0.282
0.265
0.292
0.237
0.29
0.223
0.314
0.217
0.315
0.233
0.545
0.69
0.238
0.063
0.167
0.251
0.266
0.302
0.27
0.339
0.256
0.381
0.25
0.386
0.259
0.396
0.273
0.422
0.307
0.432
0.374
0.41
0.384
0.329
0.329
0.234
0.239
0.165
0.212
0.147
0.224
0.153
0.236
0.166
0.253
0.182
0.257
0.203
0.248
0.238
0.241
0.254
0.226
0.266
0.22
0.274
0.207
0.298
0.205
0.302
0.207
0.308
0.212
0.309
0.224
0.298
0.238
0.287
0.261
0.279
0.277
0.244
0.306
0.221
0.32
0.218
0.32
0.228
0.373
0.605
0.577
0.114
0.106
0.251
0.221
0.336
0.244
0.355
0.275
0.313
0.296
0.293
0.328
0.288
0.362
0.293
0.403
0.293
0.451
0.296
0.448
0.284
0.4
0.231
0.271
0.182
0.222
0.173
0.206
0.193
0.189
0.227
0.184
0.245
0.184
0.266
0.193
0.281
0.199
0.286
0.215
0.273
0.229
0.262
0.254
0.232
0.266
0.225
0.286
0.219
0.296
0.213
0.314
0.21
0.312
0.221
0.328
0.227
0.325
0.249
0.322
0.245
0.299
0.247
0.271
0.268
0.239
0.295
0.221
0.406
0.553
0.564
0.068
0.173
0.183
0.314
0.226
0.34
0.245
0.348
0.265
0.251
0.35
0.255
0.357
0.271
0.393
0.281
0.436
0.298
0.448
0.333
0.419
0.3
0.294
0.233
0.19
0.206
0.153
0.218
0.153
0.231
0.17
0.244
0.185
0.245
0.22
0.236
0.241
0.231
0.25
0.218
0.257
0.224
0.27
0.213
0.269
0.22
0.293
0.213
0.3
0.212
0.315
0.216
0.315
0.223
0.308
0.24
0.3
0.267
0.271
0.272
0.242
0.286
0.225
0.316
0.22
0.327
0.266
0.696
0.555
0.119
0.095
0.199
0.291
0.251
0.349
0.247
0.378
0.25
0.38
0.276
0.355
0.342
0.348
0.386
0.304
0.442
0.316
0.457
0.306
0.422
0.263
0.296
0.198
0.22
0.17
0.197
0.187
0.186
0.213
0.182
0.239
0.178
0.252
0.185
0.272
0.194
0.279
0.21
0.27
0.232
0.245
0.255
0.216
0.273
0.214
0.292
0.209
0.31
0.216
0.313
0.226
0.301
0.253
0.282
0.298
0.247
0.291
0.229
0.293
0.232
0.303
0.219
0.462
0.635
0.571
0.058
0.125
0.215
0.259
0.306
0.274
0.327
0.266
0.356
0.257
0.387
0.256
0.397
0.27
0.417
0.304
0.433
0.36
0.407
0.385
0.356
0.358
0.231
0.256
0.165
0.215
0.143
0.219
0.151
0.232
0.163
0.243
0.189
0.242
0.224
0.237
0.242
0.228
0.242
0.224
0.258
0.222
0.259
0.21
0.278
0.206
0.294
0.204
0.303
0.212
0.3
0.231
0.275
0.268
0.26
0.285
0.255
0.32
0.237
0.316
0.217
0.313
0.215
0.317
0.219
0.321
0.275
0.709
0.507
0.124
0.094
0.221
0.256
0.37
0.262
0.378
0.294
0.391
0.345
0.401
0.377
0.368
0.384
0.313
0.304
0.211
0.231
0.159
0.216
0.149
0.225
0.155
0.24
0.173
0.245
0.202
0.241
0.24
0.229
0.245
0.218
0.274
0.21
0.281
0.205
0.289
0.206
0.3
0.215
0.3
0.231
0.265
0.248
0.258
0.265
0.257
0.291
0.242
0.306
0.234
0.343
0.218
0.318
0.216
0.318
0.22
0.317
0.23
0.306
0.273
0.603
0.611
0.124
0.124
0.194
0.277
0.236
0.339
0.232
0.359
0.251
0.34
0.272
0.332
0.303
0.306
0.377
0.302
0.405
0.298
0.447
0.288
0.425
0.263
0.325
0.207
0.236
0.175
0.198
0.183
0.185
0.207
0.187
0.231
0.183
0.261
0.185
0.273
0.194
0.28
0.194
0.279
0.208
0.276
0.22
0.259
0.25
0.243
0.266
0.224
0.294
0.21
0.309
0.218
0.303
0.227
0.303
0.241
0.307
0.266
0.282
0.285
0.228
0.291
0.223
0.306
0.22
0.313
0.298
0.723
0.435
0.118
0.12
0.23
0.268
0.264
0.308
0.26
0.338
0.257
0.363
0.251
0.379
0.265
0.405
0.277
0.427
0.313
0.449
0.34
0.437
0.354
0.371
0.281
0.242
0.212
0.188
0.195
0.166
0.211
0.158
0.23
0.168
0.249
0.179
0.263
0.187
0.271
0.198
0.27
0.213
0.266
0.236
0.255
0.248
0.237
0.267
0.212
0.301
0.209
0.306
0.218
0.318
0.225
0.308
0.264
0.299
0.261
0.261
0.271
0.231
0.309
0.221
0.308
0.225
0.478
0.612
0.566
0.049
0.136
0.17
0.308
0.252
0.335
0.298
0.328
0.308
0.308
0.344
0.285
0.374
0.282
0.404
0.294
0.439
0.314
0.46
0.309
0.439
0.282
0.32
0.228
0.209
0.198
0.155
0.215
0.155
0.233
0.161
0.249
0.177
0.253
0.208
0.255
0.219
0.239
0.25
0.22
0.267
0.21
0.277
0.207
0.293
0.206
0.296
0.207
0.312
0.221
0.308
0.233
0.3
0.247
0.289
0.288
0.243
0.309
0.227
0.317
0.218
0.321
0.222
0.319
0.318
0.703
0.459
0.082
0.118
0.208
0.279
0.249
0.341
0.249
0.371
0.247
0.379
0.27
0.366
0.303
0.371
0.337
0.369
0.384
0.372
0.408
0.335
0.412
0.271
0.322
0.189
0.24
0.153
0.224
0.155
0.226
0.181
0.222
0.21
0.211
0.248
0.189
0.263
0.192
0.274
0.201
0.282
0.211
0.279
0.227
0.252
0.252
0.245
0.264
0.235
0.28
0.212
0.3
0.209
0.311
0.215
0.32
0.223
0.32
0.26
0.302
0.261
0.268
0.265
0.241
0.302
0.225
0.299
0.279
0.763
0.284
0.084
0.2
0.226
0.305
0.236
0.33
0.233
0.345
0.239
0.365
0.245
0.374
0.263
0.385
0.285
0.395
0.333
0.398
0.365
0.347
0.401
0.271
0.307
0.19
0.235
0.149
0.219
0.148
0.228
0.169
0.221
0.196
0.228
0.217
0.225
0.236
0.225
0.254
0.216
0.271
0.206
0.279
0.198
0.284
0.2
0.29
0.208
0.294
0.222
0.297
0.225
0.28
0.244
0.269
0.255
0.258
0.286
0.258
0.293
0.219
0.314
0.213
0.321
0.224
0.312
0.239
0.492
0.678
0.463
0.051
0.14
0.207
0.267
0.292
0.259
0.348
0.254
0.362
0.25
0.383
0.255
0.401
0.272
0.41
0.331
0.411
0.371
0.376
0.419
0.302
0.375
0.213
0.257
0.16
0.206
0.17
0.207
0.19
0.2
0.222
0.19
0.243
0.183
0.265
0.193
0.275
0.201
0.28
0.219
0.256
0.24
0.251
0.255
0.23
0.27
0.214
0.302
0.211
0.315
0.213
0.322
0.22
0.332
0.247
0.328
0.247
0.292
0.261
0.265
0.267
0.242
0.307
0.269
0.655
0.634
0.183
0.033
0.209
0.206
0.335
0.277
0.289
0.349
0.258
0.387
0.259
0.399
0.267
0.4
0.327
0.399
0.355
0.395
0.423
0.347
0.428
0.25
0.306
0.186
0.227
0.166
0.199
0.186
0.203
0.208
0.181
0.243
0.182
0.261
0.185
0.272
0.195
0.28
0.2
0.281
0.211
0.277
0.224
0.29
0.304
0.228
0.342
0.229
0.336
0.222
0.318
0.23
0.31
0.245
0.295
0.271
0.441
0.76
0.282
0.088
0.136
0.259
0.226
0.344
0.236
0.362
0.243
0.364
0.251
0.375
0.271
0.36
0.328
0.352
0.375
0.351
0.408
0.334
0.414
0.295
0.377
0.24
0.263
0.164
0.227
0.15
0.221
0.159
0.231
0.179
0.237
0.199
0.239
0.223
0.234
0.237
0.228
0.244
0.235
0.255
0.225
0.27
0.206
0.291
0.203
0.297
0.206
0.302
0.214
0.302
0.226
0.286
0.241
0.299
0.239
0.278
0.258
0.272
0.283
0.268
0.281
0.241
0.295
0.227
0.317
0.223
0.304
0.271
0.523
0.686
0.218
0.105
0.181
0.275
0.237
0.34
0.238
0.347
0.263
0.323
0.324
0.268
0.353
0.268
0.388
0.275
0.43
0.295
0.448
0.288
0.434
0.274
0.356
0.219
0.245
0.185
0.21
0.178
0.202
0.191
0.192
0.234
0.181
0.251
0.184
0.267
0.194
0.277
0.205
0.276
0.221
0.265
0.246
0.251
0.258
0.227
0.274
0.209
0.294
0.209
0.309
0.213
0.314
0.228
0.314
0.233
0.308
0.24
0.289
0.298
0.258
0.304
0.222
0.31
0.216
0.317
0.217
0.321
0.242
0.549
0.683
0.253
0.07
0.174
0.247
0.27
0.31
0.266
0.338
0.258
0.364
0.252
0.376
0.257
0.395
0.272
0.421
0.306
0.437
0.331
0.433
0.352
0.385
0.314
0.256
0.244
0.185
0.211
0.152
0.208
0.159
0.226
0.168
0.245
0.176
0.256
0.184
0.271
0.196
0.271
0.212
0.269
0.229
0.263
0.233
0.247
0.262
0.224
0.284
0.207
0.306
0.211
0.315
0.222
0.322
0.236
0.327
0.245
0.311
0.252
0.27
0.281
0.24
0.296
0.238
0.3
0.283
0.655
0.631
0.179
0.034
0.209
0.207
0.347
0.244
0.353
0.281
0.338
0.296
0.32
0.363
0.29
0.39
0.295
0.428
0.304
0.46
0.31
0.459
0.32
0.396
0.253
0.252
0.213
0.186
0.197
0.165
0.208
0.171
0.223
0.179
0.237
0.183
0.26
0.185
0.276
0.202
0.272
0.222
0.246
0.24
0.234
0.255
0.228
0.271
0.211
0.307
0.212
0.289
0.231
0.281
0.245
0.272
0.266
0.244
0.297
0.237
0.332
0.226
0.329
0.217
0.317
0.216
0.315
0.225
0.314
0.259
0.579
0.662
0.197
0.089
0.181
0.278
0.255
0.331
0.256
0.366
0.245
0.372
0.256
0.354
0.302
0.355
0.338
0.357
0.372
0.342
0.429
0.313
0.427
0.274
0.343
0.204
0.251
0.164
0.223
0.158
0.207
0.195
0.205
0.227
0.19
0.243
0.192
0.257
0.192
0.273
0.193
0.281
0.2
0.27
0.227
0.265
0.231
0.243
0.245
0.232
0.268
0.224
0.287
0.213
0.31
0.216
0.318
0.221
0.324
0.228
0.323
0.254
0.308
0.274
0.274
0.255
0.25
0.295
0.228
0.311
0.232
0.559
0.629
0.266
0.028
0.183
0.193
0.326
0.237
0.353
0.338
0.253
0.364
0.25
0.38
0.274
0.388
0.303
0.354
0.386
0.367
0.412
0.339
0.417
0.282
0.345
0.203
0.248
0.155
0.216
0.161
0.206
0.196
0.19
0.221
0.19
0.244
0.184
0.265
0.194
0.269
0.219
0.26
0.236
0.227
0.262
0.218
0.28
0.212
0.292
0.212
0.298
0.21
0.3
0.226
0.294
0.256
0.277
0.3
0.245
0.308
0.224
0.305
0.22
0.324
0.224
0.307
0.238
0.486
0.689
0.374
0.054
0.114
0.216
0.259
0.313
0.273
0.355
0.261
0.372
0.261
0.38
0.262
0.398
0.305
0.405
0.354
0.404
0.393
0.386
0.424
0.307
0.372
0.225
0.262
0.163
0.219
0.144
0.216
0.171
0.22
0.193
0.226
0.212
0.224
0.235
0.22
0.261
0.201
0.274
0.203
0.278
0.206
0.286
0.21
0.278
0.232
0.268
0.248
0.259
0.269
0.234
0.288
0.229
0.306
0.222
0.331
0.237
0.329
0.23
0.29
0.267
0.253
0.282
0.233
0.315
0.311
0.718
0.468
0.118
0.094
0.245
0.24
0.316
0.284
0.293
0.378
0.343
0.405
0.372
0.394
0.356
0.344
0.268
0.235
0.217
0.179
0.203
0.157
0.221
0.16
0.236
0.176
0.251
0.19
0.255
0.2
0.254
0.226
0.249
0.24
0.246
0.252
0.232
0.262
0.222
0.279
0.216
0.284
0.212
0.3
0.219
0.304
0.226
0.299
0.24
0.271
0.278
0.247
0.327
0.23
0.319
0.224
0.313
0.233
0.305
0.247
0.289
0.445
0.715
0.279
0.068
0.169
0.218
0.305
0.263
0.294
0.292
0.272
0.348
0.252
0.37
0.26
0.388
0.269
0.408
0.332
0.411
0.338
0.415
0.342
0.361
0.277
0.244
0.221
0.187
0.195
0.177
0.207
0.178
0.223
0.179
0.24
0.182
0.257
0.19
0.269
0.206
0.264
0.212
0.268
0.224
0.264
0.226
0.271
0.234
0.262
0.261
0.235
0.272
0.223
0.299
0.214
0.304
0.229
0.3
0.254
0.289
0.275
0.258
0.293
0.235
0.292
0.222
0.304
0.22
0.301
0.272
0.645
0.53
0.116
0.083
0.212
0.263
0.262
0.343
0.25
0.376
0.26
0.371
0.266
0.375
0.304
0.36
0.355
0.365
0.399
0.35
0.42
0.334
0.411
0.268
0.328
0.194
0.226
0.166
0.197
0.182
0.18
0.205
0.192
0.226
0.183
0.253
0.192
0.258
0.201
0.27
0.216
0.255
0.238
0.248
0.242
0.244
0.257
0.24
0.267
0.233
0.288
0.225
0.308
0.225
0.316
0.225
0.321
0.24
0.341
0.244
0.312
0.236
