250
0.105
0
-0.06
-0.085
-0.085
-0.09
-0.11
-0.155
-0.175
-0.18
-0.175
-0.18
-0.185
-0.18
-0.175
-0.18
-0.2
-0.215
-0.215
-0.22
-0.24
-0.25
-0.245
-0.235
-0.23
-0.23
-0.23
-0.225
-0.23
-0.235
-0.235
-0.23
-0.23
-0.225
-0.225
-0.24
-0.25
-0.255
-0.24
-0.23
-0.23
-0.235
-0.235
-0.235
-0.23
-0.23
-0.235
-0.23
-0.22
-0.225
-0.225
-0.22
-0.22
-0.225
-0.23
-0.23
-0.225
-0.23
-0.23
-0.22
-0.19
-0.165
-0.15
-0.145
-0.135
-0.12
-0.105
-0.075
-0.055
-0.045
-0.05
-0.05
-0.05
-0.045
-0.05
-0.05
-0.045
-0.035
-0.035
-0.045
-0.045
-0.04
-0.04
-0.045
-0.065
-0.07
-0.07
-0.075
-0.08
-0.08
-0.075
-0.075
-0.075
-0.075
-0.08
-0.085
-0.09
-0.095
-0.095
-0.095
-0.1
-0.105
-0.105
-0.105
-0.085
-0.065
-0.06
-0.06
-0.07
-0.08
-0.08
-0.07
-0.075
-0.075
-0.075
-0.075
-0.075
-0.065
-0.05
-0.04
-0.03
-0.025
-0.02
-0.02
-0.02
-0.015
0
0.005
0.01
0.01
0.005
0.005
0.01
0.015
0.015
0.02
0.025
0.025
0.025
0
-0.02
-0.03
-0.035
-0.035
-0.035
-0.03
-0.02
-0.01
-0.005
0
-0.005
-0.015
-0.025
-0.025
-0.025
-0.03
-0.02
0.13
0.405
0.775
1.205
1.635
1.935
2.035
1.97
1.715
1.375
1.01
0.68
0.415
0.235
0.12
0.055
0.015
-0.015
-0.045
-0.065
-0.085
-0.095
-0.105
-0.105
-0.105
-0.1
-0.11
-0.125
-0.135
-0.13
-0.12
-0.115
-0.115
-0.12
-0.12
-0.125
-0.13
-0.14
-0.14
-0.14
-0.14
-0.14
-0.18
-0.205
-0.2
-0.165
-0.145
-0.145
-0.145
-0.14
-0.135
-0.135
-0.14
-0.14
-0.14
-0.14
-0.145
-0.155
-0.175
-0.18
-0.185
-0.185
-0.18
-0.175
-0.18
-0.18
-0.19
-0.195
-0.2
-0.2
-0.2
-0.195
-0.19
-0.17
-0.155
-0.145
-0.135
-0.12
-0.11
-0.105
-0.105
-0.095
-0.065
-0.055
-0.05
-0.055
-0.06
-0.035
-0.01
-0.01
-0.01
-0.02
-0.04
-0.06
-0.065
-0.07
-0.07
-0.07
-0.07
-0.05
-0.035
-0.03
-0.03
-0.04
-0.045
-0.04
-0.045
-0.05
-0.08
-0.105
-0.115
-0.115
-0.09
-0.06
-0.045
-0.045
-0.045
-0.05
-0.055
-0.06
-0.065
-0.065
-0.065
-0.06
-0.05
-0.045
-0.05
-0.065
-0.07
-0.065
-0.045
-0.04
-0.04
-0.045
-0.04
-0.04
-0.035
-0.035
-0.035
-0.04
-0.04
-0.015
0
0.01
0.005
0
0
0
0
0
-0.01
-0.02
-0.035
-0.04
-0.035
-0.025
-0.02
-0.02
-0.02
-0.02
-0.025
-0.015
0.005
0.015
0.01
0
-0.03
-0.05
-0.05
0.03
0.21
0.455
0.77
1.17
1.56
1.825
1.905
1.855
1.66
1.375
1.025
0.69
0.435
0.265
0.155
0.095
0.045
-0.005
-0.03
-0.035
-0.035
-0.04
-0.04
-0.05
-0.065
-0.08
-0.085
-0.085
-0.08
-0.06
-0.055
-0.06
-0.075
-0.08
-0.08
-0.08
-0.08
-0.1
-0.115
-0.115
-0.11
-0.115
-0.125
-0.13
-0.13
-0.13
-0.13
-0.14
-0.15
-0.155
-0.155
-0.145
-0.14
-0.14
-0.14
-0.145
-0.145
-0.145
-0.145
-0.15
-0.15
-0.155
-0.155
-0.145
-0.13
-0.13
-0.14
-0.15
-0.15
-0.145
-0.145
-0.14
-0.14
-0.135
-0.13
-0.125
-0.105
-0.08
-0.065
-0.045
-0.035
-0.035
-0.03
-0.025
0
0.025
0.04
0.04
0.04
0.04
0.04
0.04
0.04
0.04
0.03
0.005
-0.015
-0.025
-0.03
-0.025
-0.01
0
-0.005
-0.03
-0.04
-0.02
0.005
0.015
0
-0.04
-0.06
-0.06
-0.035
-0.01
-0.005
-0.005
-0.01
-0.015
-0.01
-0.005
0
-0.005
-0.005
0
0
0.005
0.01
0.01
0.015
0.01
0.01
0.015
0.03
0.04
0.045
0.045
0.035
0.01
0.005
0.005
0.05
0.08
0.085
0.085
0.075
0.06
0.055
0.045
0.04
0.03
0.025
0.02
0.02
0.02
0.015
0.01
0.01
0.02
0.02
0.015
-0.025
-0.055
-0.055
-0.03
-0.015
-0.02
-0.06
-0.07
-0.04
0.09
0.325
0.645
1.055
1.565
2.05
2.36
2.42
2.21
1.775
1.245
0.77
0.435
0.245
0.13
0.045
-0.015
-0.055
-0.08
-0.11
-0.135
-0.145
-0.155
-0.16
-0.17
-0.185
-0.19
-0.195
-0.195
-0.17
-0.15
-0.15
-0.155
-0.155
-0.155
-0.16
-0.17
-0.175
-0.175
-0.185
-0.205
-0.215
-0.205
-0.18
-0.17
-0.17
-0.17
-0.175
-0.18
-0.185
-0.18
-0.175
-0.17
-0.17
-0.17
-0.17
-0.175
-0.19
-0.19
-0.19
-0.185
-0.185
-0.19
-0.19
-0.19
-0.195
-0.195
-0.195
-0.195
-0.195
-0.19
-0.175
-0.165
-0.17
-0.175
-0.17
-0.145
-0.12
-0.11
-0.11
-0.11
-0.105
-0.105
-0.1
-0.09
-0.075
-0.065
-0.06
-0.055
-0.05
-0.055
-0.065
-0.07
-0.07
-0.07
-0.065
-0.055
-0.05
-0.06
-0.065
-0.07
-0.07
-0.065
-0.07
-0.07
-0.07
-0.07
-0.075
-0.07
-0.065
-0.06
-0.075
-0.075
-0.06
-0.035
-0.03
-0.03
-0.03
-0.03
-0.03
-0.025
-0.015
-0.01
-0.015
-0.02
-0.02
-0.01
0.01
0.015
0.015
0.01
0.01
0.015
0.03
0.035
0.04
0.025
0.01
0.005
0.015
0.045
0.055
0.055
0.055
0.06
0.055
0.055
0.045
0.04
0.035
0.03
0.025
0.03
0.04
0.04
0.04
0.03
0.025
0.02
0.015
0.01
0.005
0.005
0.005
0.005
0.01
0.01
0.005
0
0
0.05
0.195
0.425
0.75
1.175
1.71
2.24
2.59
2.675
2.52
2.135
1.65
1.165
0.775
0.505
0.32
0.185
0.09
0.025
-0.015
-0.05
-0.085
-0.11
-0.125
-0.135
-0.15
-0.165
-0.17
-0.165
-0.17
-0.17
-0.17
-0.18
-0.19
-0.195
-0.195
-0.19
-0.195
-0.195
-0.2
-0.2
-0.195
-0.185
-0.175
-0.175
-0.175
-0.185
-0.19
-0.19
-0.185
-0.19
-0.195
-0.19
-0.185
-0.19
-0.185
-0.185
-0.18
-0.185
-0.185
-0.185
-0.185
-0.18
-0.18
-0.18
-0.19
-0.19
-0.195
-0.195
-0.195
-0.18
-0.165
-0.15
-0.14
-0.135
-0.14
-0.14
-0.12
-0.095
-0.085
-0.08
-0.06
-0.015
0.02
0.04
0.04
0.04
0.04
0.04
0.03
0.025
0.025
0.02
0.02
0.015
0.005
-0.005
-0.01
-0.01
-0.005
-0.01
-0.01
-0.01
-0.01
-0.025
-0.03
-0.04
-0.045
-0.05
-0.06
-0.06
-0.04
-0.01
-0.005
-0.015
-0.025
-0.025
-0.02
-0.005
0
0
-0.01
-0.035
-0.05
-0.045
-0.035
-0.02
-0.01
0
0.02
0.025
0.02
0.01
0.01
0.02
0.04
0.045
0.05
0.045
0.035
0.04
0.05
0.06
0.065
0.06
0.055
0.06
0.055
0.055
0.045
0.035
0.035
0.04
0.05
0.055
0.055
0.045
0.025
0
-0.02
-0.03
-0.03
-0.025
-0.025
-0.035
-0.035
-0.035
-0.02
-0.01
-0.01
0.005
0.14
0.38
0.7
1.11
1.615
2.105
2.435
2.545
2.465
2.165
1.735
1.26
0.86
0.59
0.415
0.27
0.14
0.04
-0.02
-0.05
-0.07
-0.09
-0.105
-0.115
-0.12
-0.125
-0.13
-0.13
-0.125
-0.125
-0.125
-0.13
-0.13
-0.13
-0.14
-0.15
-0.15
-0.15
-0.15
-0.15
-0.15
-0.15
-0.145
-0.155
-0.16
-0.16
-0.155
-0.155
-0.16
-0.165
-0.175
-0.18
-0.185
-0.185
-0.185
-0.19
-0.185
-0.18
-0.18
-0.205
-0.22
-0.22
-0.22
-0.22
-0.225
-0.23
-0.23
-0.225
-0.22
-0.21
-0.205
-0.2
-0.205
-0.205
-0.21
-0.205
-0.205
-0.18
-0.145
-0.12
-0.11
-0.1
-0.075
-0.05
-0.04
-0.04
-0.045
-0.045
-0.045
-0.045
-0.045
-0.045
-0.045
-0.05
-0.05
-0.04
-0.02
-0.015
-0.015
-0.015
-0.02
-0.04
-0.06
-0.07
-0.07
-0.075
-0.08
-0.085
-0.085
-0.08
-0.085
-0.085
-0.08
-0.065
-0.06
-0.055
-0.045
-0.04
-0.035
-0.035
-0.03
-0.035
-0.05
-0.06
-0.06
-0.06
-0.06
-0.06
-0.055
-0.04
-0.035
-0.03
-0.03
-0.025
-0.02
-0.025
-0.025
-0.015
0
0.005
0.025
0.055
0.075
0.075
0.05
0.03
0.025
0.025
0.025
0.025
0.025
0.025
0.02
0.005
-0.005
-0.005
-0.005
-0.005
-0.005
-0.02
-0.045
-0.055
-0.055
-0.045
-0.04
-0.04
-0.03
-0.025
-0.025
-0.025
0.005
0.145
0.38
0.705
1.135
1.625
2.05
2.27
2.285
2.085
1.735
1.325
0.935
0.615
0.385
0.22
0.105
0.025
-0.035
-0.095
-0.12
-0.125
-0.12
-0.115
-0.11
-0.115
-0.115
-0.115
-0.13
-0.14
-0.145
-0.145
-0.145
-0.15
-0.155
-0.165
-0.175
-0.18
-0.185
-0.18
-0.16
-0.15
-0.15
-0.165
-0.18
-0.19
-0.195
-0.195
-0.19
-0.2
-0.215
-0.225
-0.225
-0.225
-0.21
-0.205
-0.195
-0.2
-0.215
-0.22
-0.22
-0.22
-0.225
-0.25
-0.27
-0.275
-0.275
-0.275
-0.28
-0.28
-0.285
-0.29
-0.29
-0.295
-0.3
-0.295
-0.275
-0.25
-0.235
-0.205
-0.175
-0.145
-0.125
-0.115
-0.1
-0.085
-0.08
-0.08
-0.09
-0.095
-0.09
-0.09
-0.09
-0.09
-0.095
-0.095
-0.095
-0.085
-0.07
-0.07
-0.07
-0.07
-0.075
-0.085
-0.095
-0.1
-0.1
-0.1
-0.105
-0.1
-0.095
-0.09
-0.1
-0.105
-0.105
-0.1
-0.1
-0.095
-0.075
-0.055
-0.055
-0.06
-0.06
-0.055
-0.05
-0.05
-0.05
-0.05
-0.05
-0.05
-0.05
-0.055
-0.07
-0.075
-0.08
-0.075
-0.06
-0.055
-0.05
-0.04
-0.03
-0.03
-0.035
-0.035
-0.03
-0.03
-0.02
-0.01
0
-0.005
-0.02
-0.03
-0.03
-0.03
-0.03
-0.03
-0.035
-0.04
-0.05
-0.055
-0.055
-0.05
-0.055
-0.055
-0.06
-0.06
-0.07
-0.07
-0.07
-0.07
-0.08
-0.09
-0.04
0.15
0.42
0.74
1.115
1.5
1.815
1.985
1.99
1.78
1.44
1.065
0.725
0.475
0.315
0.19
0.095
0.025
-0.03
-0.075
-0.11
-0.145
-0.155
-0.155
-0.145
-0.135
-0.135
-0.14
-0.15
-0.17
-0.18
-0.18
-0.175
-0.17
-0.165
-0.165
-0.175
-0.18
-0.18
-0.175
-0.18
-0.185
-0.195
-0.195
-0.2
-0.2
-0.205
-0.22
-0.23
-0.235
-0.24
-0.235
-0.23
-0.23
-0.225
-0.22
-0.23
-0.25
-0.255
-0.255
-0.255
-0.275
-0.3
-0.315
-0.315
-0.315
-0.315
-0.315
-0.315
-0.33
-0.355
-0.37
-0.375
-0.37
-0.37
-0.355
-0.33
-0.3
-0.275
-0.24
-0.205
-0.185
-0.185
-0.18
-0.17
-0.155
-0.155
-0.15
-0.135
-0.125
-0.115
-0.115
-0.12
-0.115
-0.11
-0.115
-0.115
-0.11
-0.105
-0.11
-0.11
-0.11
-0.11
-0.11
-0.105
-0.105
-0.1
-0.095
-0.095
-0.09
-0.085
-0.08
-0.08
-0.085
-0.08
-0.08
-0.09
-0.105
-0.12
-0.115
-0.12
-0.115
-0.11
-0.105
-0.105
-0.095
-0.085
-0.075
-0.075
-0.085
-0.085
-0.085
-0.08
-0.08
-0.08
-0.08
-0.07
-0.06
-0.06
-0.055
-0.055
-0.055
-0.055
-0.045
-0.035
-0.035
-0.04
-0.04
-0.035
-0.035
-0.04
-0.035
-0.03
-0.025
-0.03
-0.03
-0.03
-0.035
-0.05
-0.065
-0.07
-0.07
-0.08
-0.09
-0.095
-0.09
-0.095
-0.095
-0.09
-0.085
-0.085
-0.085
-0.09
-0.08
-0.01
0.135
0.35
0.665
1.045
1.38
1.57
1.6
1.465
1.18
0.86
0.6
0.425
0.295
0.17
0.05
-0.035
-0.08
-0.1
-0.105
-0.115
-0.14
-0.17
-0.19
-0.19
-0.19
-0.195
-0.2
-0.2
-0.2
-0.205
-0.21
-0.21
-0.21
-0.21
-0.205
-0.195
-0.19
-0.19
-0.2
-0.21
-0.215
-0.215
-0.21
-0.2
-0.2
-0.21
-0.23
-0.235
-0.235
-0.235
-0.24
-0.245
-0.245
-0.24
-0.245
-0.25
-0.255
-0.26
-0.27
-0.28
-0.285
-0.3
-0.325
-0.345
-0.35
-0.35
-0.355
-0.38
-0.405
-0.415
-0.415
-0.41
-0.405
-0.395
-0.38
-0.38
-0.38
-0.38
-0.375
-0.34
-0.295
-0.275
-0.265
-0.26
-0.25
-0.23
-0.215
-0.2
-0.2
-0.195
-0.19
-0.17
-0.165
-0.16
-0.155
-0.145
-0.145
-0.145
-0.14
-0.14
-0.14
-0.145
-0.15
-0.145
-0.135
-0.13
-0.13
-0.13
-0.13
-0.135
-0.135
-0.125
-0.12
-0.12
-0.125
-0.13
-0.13
-0.135
-0.12
-0.09
-0.075
-0.075
-0.085
-0.09
-0.09
-0.105
-0.145
-0.17
-0.17
-0.165
-0.14
-0.12
-0.11
-0.105
-0.105
-0.11
-0.11
-0.14
-0.16
-0.155
-0.105
-0.08
-0.085
-0.11
-0.12
-0.11
-0.095
-0.085
-0.09
-0.09
-0.09
-0.09
-0.09
-0.085
-0.085
-0.09
-0.13
-0.165
-0.165
-0.15
-0.135
-0.13
-0.125
-0.125
-0.13
-0.13
-0.125
-0.125
-0.125
-0.125
-0.12
-0.12
-0.12
-0.065
0.12
0.375
0.66
0.935
1.155
1.265
1.285
1.245
1.105
0.9
0.68
0.48
0.325
0.2
0.08
-0.02
-0.085
-0.11
-0.125
-0.145
-0.17
-0.185
-0.185
-0.19
-0.215
-0.235
-0.235
-0.235
-0.235
-0.235
-0.23
-0.235
-0.23
-0.225
-0.22
-0.22
-0.235
-0.245
-0.245
-0.245
-0.25
-0.265
-0.27
-0.265
-0.26
-0.26
-0.255
-0.255
-0.275
-0.285
-0.285
-0.28
-0.285
-0.285
-0.29
-0.295
-0.3
-0.31
-0.32
-0.32
-0.32
-0.335
-0.355
-0.38
-0.385
-0.39
-0.39
-0.415
-0.44
-0.445
-0.45
-0.44
-0.43
-0.435
-0.43
-0.405
-0.38
-0.375
-0.365
-0.345
-0.31
-0.285
-0.28
-0.275
-0.27
-0.25
-0.21
-0.19
-0.185
-0.18
-0.185
-0.185
-0.175
-0.16
-0.16
-0.165
-0.17
-0.175
-0.18
-0.175
-0.125
-0.09
-0.085
-0.1
-0.11
-0.115
-0.11
-0.115
-0.115
-0.115
-0.125
-0.145
-0.17
-0.175
-0.155
-0.12
-0.115
-0.11
-0.125
-0.145
-0.155
-0.15
-0.14
-0.14
-0.14
-0.155
-0.16
-0.155
-0.155
-0.15
-0.14
-0.115
-0.105
-0.105
-0.115
-0.13
-0.135
-0.12
-0.08
-0.06
-0.07
-0.115
-0.14
-0.145
-0.14
-0.125
-0.115
-0.115
-0.12
-0.125
-0.13
-0.13
-0.125
-0.13
-0.13
-0.13
-0.14
-0.15
-0.155
-0.15
-0.145
-0.145
-0.15
-0.155
-0.15
-0.15
-0.15
-0.15
-0.165
-0.17
-0.16
-0.12
-0.11
-0.105
-0.075
0.055
0.29
0.62
0.975
1.24
1.35
1.355
1.22
1.035
0.835
0.64
0.46
0.29
0.135
0.01
-0.08
-0.14
-0.175
-0.195
-0.215
-0.245
-0.28
-0.305
-0.335
-0.355
-0.355
-0.32
-0.29
-0.29
-0.315
-0.325
-0.32
-0.31
-0.305
-0.315
-0.34
-0.345
-0.35
-0.35
-0.345
-0.34
-0.335
-0.33
-0.325
-0.325
-0.325
-0.34
-0.35
-0.355
-0.355
-0.355
-0.355
-0.355
-0.355
-0.345
-0.34
-0.34
-0.375
-0.41
-0.43
-0.45
-0.465
-0.475
-0.485
-0.535
-0.605
-0.635
-0.62
-0.555
-0.535
-0.55
-0.585
-0.595
-0.595
-0.595
-0.58
-0.545
-0.52
-0.52
-0.52
-0.51
-0.435
-0.355
-0.325
-0.325
-0.325
-0.32
-0.32
-0.305
-0.29
-0.28
-0.28
-0.285
-0.28
-0.275
-0.23
-0.17
-0.145
-0.14
-0.165
-0.185
-0.185
-0.17
-0.155
-0.155
-0.155
-0.155
-0.16
-0.17
-0.175
-0.17
-0.165
-0.165
-0.17
-0.165
-0.14
-0.13
-0.135
-0.165
-0.175
-0.175
-0.175
-0.175
-0.17
-0.17
-0.175
-0.18
-0.165
-0.15
-0.15
-0.15
-0.15
-0.145
-0.135
-0.13
-0.13
-0.13
-0.13
-0.115
-0.105
-0.105
-0.115
-0.13
-0.14
-0.14
-0.14
-0.13
-0.125
-0.125
-0.125
-0.135
-0.15
-0.155
-0.155
-0.155
-0.15
-0.15
-0.15
-0.16
-0.165
-0.165
-0.155
-0.15
-0.15
-0.155
-0.15
-0.145
-0.13
-0.12
-0.115
-0.115
-0.12
-0.095
0.035
0.25
0.48
0.725
0.935
1.06
1.105
1.11
1.1
1.025
0.86
0.64
0.44
0.3
0.2
0.08
-0.05
-0.135
-0.165
-0.195
-0.235
-0.255
-0.25
-0.25
-0.25
-0.25
-0.245
-0.265
-0.28
-0.28
-0.275
-0.28
-0.285
-0.29
-0.285
-0.29
-0.29
-0.29
-0.29
-0.285
-0.28
-0.28
-0.28
-0.275
-0.275
-0.275
-0.275
-0.275
-0.28
-0.28
-0.265
-0.26
-0.265
-0.285
-0.295
-0.295
-0.3
-0.3
-0.3
-0.305
-0.305
-0.34
-0.365
-0.37
-0.37
-0.37
-0.38
-0.4
-0.41
-0.415
-0.42
-0.44
-0.47
-0.485
-0.48
-0.465
-0.44
-0.43
-0.43
-0.42
-0.385
-0.335
-0.305
-0.285
-0.27
-0.255
-0.25
-0.24
-0.205
-0.17
-0.155
-0.16
-0.155
-0.155
-0.155
-0.155
-0.155
-0.15
-0.15
-0.155
-0.16
-0.17
-0.17
-0.155
-0.12
-0.105
-0.1
-0.105
-0.115
-0.115
-0.115
-0.125
-0.14
-0.15
-0.15
-0.15
-0.16
-0.165
-0.17
-0.165
-0.165
-0.155
-0.115
-0.075
-0.065
-0.07
-0.1
-0.13
-0.155
-0.165
-0.165
-0.165
-0.165
-0.165
-0.145
-0.125
-0.125
-0.13
-0.13
-0.13
-0.13
-0.135
-0.135
-0.135
-0.125
-0.115
-0.11
-0.11
-0.11
-0.115
-0.115
-0.115
-0.11
-0.11
-0.115
-0.115
-0.125
-0.13
-0.13
-0.115
-0.1
-0.105
-0.14
-0.155
-0.155
-0.155
-0.155
-0.16
-0.195
-0.215
-0.225
-0.19
-0.085
0.075
0.275
0.54
0.835
1.08
1.205
1.225
1.155
1.015
0.84
0.665
0.49
0.31
0.145
0.015
-0.07
-0.12
-0.155
-0.185
-0.2
-0.2
-0.2
-0.235
-0.275
-0.285
-0.285
-0.285
-0.295
-0.31
-0.31
-0.315
-0.32
-0.34
-0.355
-0.36
-0.365
-0.375
-0.39
-0.4
-0.405
-0.415
-0.415
-0.41
-0.41
-0.415
-0.42
-0.435
-0.46
-0.475
-0.485
-0.495
-0.515
-0.535
-0.55
-0.56
-0.575
-0.59
-0.6
-0.61
-0.61
-0.635
-0.665
-0.685
-0.685
-0.685
-0.675
-0.665
-0.655
-0.64
-0.62
-0.615
-0.605
-0.605
-0.6
-0.575
-0.54
-0.505
-0.465
-0.425
-0.39
-0.375
-0.375
-0.37
-0.355
-0.335
-0.3
-0.275
-0.265
-0.26
-0.26
-0.265
-0.26
-0.235
-0.215
-0.215
-0.225
-0.25
-0.26
-0.265
-0.265
-0.265
-0.265
-0.27
-0.27
-0.275
-0.28
-0.285
-0.285
-0.285
-0.295
-0.335
-0.36
-0.365
-0.36
-0.375
-0.44
-0.505
-0.52
-0.52
-0.49
-0.455
-0.44
-0.43
-0.43
-0.43
-0.435
-0.435
-0.44
-0.44
-0.415
-0.385
-0.38
-0.375
-0.365
-0.32
-0.285
-0.265
-0.26
-0.255
-0.25
-0.25
-0.25
-0.24
-0.215
-0.19
-0.17
-0.155
-0.145
-0.145
-0.15
-0.165
-0.17
-0.18
-0.185
-0.19
-0.185
-0.195
-0.195
-0.195
-0.195
-0.21
-0.235
-0.245
-0.24
-0.21
-0.195
-0.2
-0.22
-0.235
-0.22
-0.115
0.065
0.33
0.67
1.055
1.405
1.645
1.745
1.73
1.485
1.065
0.625
0.31
0.15
0.085
0.03
-0.05
-0.14
-0.205
-0.24
-0.255
-0.265
-0.27
-0.28
-0.29
-0.3
-0.315
-0.325
-0.335
-0.34
-0.34
-0.34
-0.36
-0.375
-0.38
-0.38
-0.385
-0.415
-0.475
-0.52
-0.565
-0.64
-0.745
-0.86
-0.97
-1.08
-1.17
-1.235
-1.27
-1.29
-1.305
-1.31
-1.31
-1.31
-1.305
-1.275
-1.225
-1.15
-1.065
-0.995
-0.93
-0.865
-0.805
-0.735
-0.65
-0.6
-0.585
-0.58
-0.57
-0.56
-0.54
-0.51
-0.48
-0.46
-0.445
-0.42
-0.385
-0.355
-0.345
-0.325
-0.295
-0.26
-0.245
-0.24
-0.24
-0.24
-0.235
-0.235
-0.23
-0.21
-0.195
-0.195
-0.195
-0.19
-0.18
-0.175
-0.17
-0.165
-0.165
-0.17
-0.17
-0.155
-0.125
-0.11
-0.11
-0.11
-0.11
-0.105
-0.105
-0.11
-0.11
-0.11
-0.11
-0.11
-0.105
-0.1
-0.105
-0.11
-0.11
-0.105
-0.105
-0.105
-0.1
-0.095
-0.09
-0.09
-0.09
-0.085
-0.08
-0.08
-0.085
-0.085
-0.08
-0.085
-0.07
-0.035
-0.025
-0.025
-0.03
-0.035
-0.04
-0.04
-0.04
-0.04
-0.05
-0.08
-0.09
-0.09
-0.08
-0.06
-0.05
-0.05
-0.07
-0.09
-0.095
-0.095
-0.09
-0.07
-0.07
-0.075
-0.095
-0.11
-0.115
-0.11
-0.085
-0.075
-0.08
-0.09
-0.1
-0.095
-0.005
0.185
0.465
0.825
1.245
1.63
1.89
1.955
1.82
1.46
1.02
0.65
0.425
0.29
0.175
0.045
-0.05
-0.1
-0.12
-0.13
-0.14
-0.145
-0.15
-0.15
-0.15
-0.15
-0.155
-0.165
-0.175
-0.19
-0.2
-0.205
-0.2
-0.195
-0.195
-0.205
-0.2
-0.175
-0.155
-0.155
-0.165
-0.18
-0.18
-0.185
-0.195
-0.2
-0.195
-0.19
-0.18
-0.165
-0.155
-0.16
-0.16
-0.16
-0.16
-0.165
-0.165
-0.165
-0.16
-0.19
-0.225
-0.24
-0.24
-0.235
-0.24
-0.245
-0.245
-0.24
-0.25
-0.27
-0.285
-0.295
-0.3
-0.3
-0.3
-0.295
-0.295
-0.29
-0.27
-0.23
-0.195
-0.175
-0.17
-0.17
-0.17
-0.16
-0.15
-0.145
-0.145
-0.145
-0.145
-0.14
-0.105
-0.085
-0.085
-0.095
-0.12
-0.13
-0.13
-0.125
-0.115
-0.115
-0.12
-0.115
-0.105
-0.095
-0.09
-0.09
-0.085
-0.075
-0.07
-0.065
-0.065
-0.065
-0.07
-0.075
-0.09
-0.105
-0.115
-0.12
-0.125
-0.135
-0.14
-0.145
-0.14
-0.135
-0.135
-0.14
-0.14
-0.155
-0.165
-0.175
-0.185
-0.2
-0.21
-0.215
-0.205
-0.175
-0.155
-0.155
-0.16
-0.16
-0.165
-0.17
-0.175
-0.175
-0.185
-0.215
-0.235
-0.24
-0.235
-0.23
-0.23
-0.23
-0.23
-0.22
-0.225
-0.23
-0.235
-0.24
-0.24
-0.24
-0.24
-0.24
-0.245
-0.245
-0.245
-0.19
-0.04
0.22
0.575
1.025
1.53
1.92
2.08
2.025
1.72
1.28
0.815
0.445
0.195
0.035
-0.07
-0.14
-0.18
-0.205
-0.225
-0.245
-0.255
-0.27
-0.285
-0.29
-0.295
-0.29
-0.295
-0.295
-0.295
-0.29
-0.295
-0.305
-0.31
-0.31
-0.32
-0.325
-0.32
-0.31
-0.3
-0.295
-0.295
-0.29
-0.275
-0.25
-0.235
-0.225
-0.225
-0.23
-0.24
-0.245
-0.25
-0.255
-0.26
-0.26
-0.26
-0.26
-0.26
-0.255
-0.25
-0.255
-0.255
-0.26
-0.275
-0.29
-0.31
-0.32
-0.32
-0.315
-0.315
-0.315
-0.31
-0.31
-0.315
-0.315
-0.31
-0.305
-0.31
-0.31
-0.295
-0.265
-0.25
-0.245
-0.24
-0.225
-0.215
-0.215
-0.21
-0.21
-0.21
-0.205
-0.19
-0.185
-0.18
-0.185
-0.19
-0.19
-0.16
-0.14
-0.135
-0.135
-0.135
-0.145
-0.145
-0.14
-0.13
-0.125
-0.13
-0.13
-0.125
-0.12
-0.12
-0.12
-0.12
-0.115
-0.12
-0.12
-0.125
-0.13
-0.13
-0.135
-0.135
-0.14
-0.145
-0.145
-0.135
-0.125
-0.125
-0.125
-0.12
-0.12
-0.125
-0.135
-0.135
-0.135
-0.13
-0.13
-0.125
-0.095
-0.045
-0.015
-0.01
-0.005
0
0
0
-0.005
-0.02
-0.045
-0.07
-0.09
-0.105
-0.12
-0.13
-0.135
-0.135
-0.13
-0.13
-0.13
-0.13
-0.125
-0.13
-0.14
-0.165
-0.19
-0.215
-0.21
-0.08
0.175
0.495
0.855
1.295
1.745
2.08
2.21
2.165
1.89
1.47
1.005
0.6
0.325
0.17
0.06
-0.04
-0.115
-0.155
-0.18
-0.205
-0.22
-0.235
-0.245
-0.26
-0.275
-0.295
-0.31
-0.315
-0.315
-0.305
-0.29
-0.285
-0.28
-0.28
-0.275
-0.28
-0.28
-0.275
-0.27
-0.275
-0.285
-0.29
-0.29
-0.29
-0.295
-0.3
-0.3
-0.3
-0.295
-0.295
-0.295
-0.305
-0.315
-0.315
-0.315
-0.315
-0.33
-0.34
-0.335
-0.325
-0.32
-0.31
-0.305
-0.3
-0.31
-0.315
-0.315
-0.305
-0.295
-0.295
-0.295
-0.295
-0.295
-0.285
-0.275
-0.265
-0.26
-0.25
-0.23
-0.195
-0.155
-0.13
-0.125
-0.125
-0.13
-0.15
-0.155
-0.145
-0.115
-0.105
-0.105
-0.13
-0.145
-0.145
-0.145
-0.125
-0.12
-0.125
-0.135
-0.135
-0.135
-0.13
-0.135
-0.135
-0.12
-0.115
-0.12
-0.135
-0.14
-0.14
-0.145
-0.15
-0.155
-0.15
-0.15
-0.15
-0.155
-0.15
-0.15
-0.15
-0.155
-0.15
-0.145
-0.135
-0.125
-0.11
-0.1
-0.095
-0.09
-0.085
-0.08
-0.08
-0.085
-0.085
-0.085
-0.085
-0.085
-0.085
-0.09
-0.095
-0.11
-0.115
-0.115
-0.11
-0.11
-0.115
-0.115
-0.11
-0.115
-0.125
-0.155
-0.175
-0.18
-0.18
-0.18
-0.18
-0.185
-0.19
-0.18
-0.165
-0.15
-0.15
-0.15
-0.15
-0.125
-0.005
0.205
0.48
0.855
1.345
1.82
2.12
2.2
2.095
1.785
1.36
0.91
0.53
0.265
0.095
-0.005
-0.075
-0.145
-0.19
-0.21
-0.215
-0.225
-0.235
-0.245
-0.26
-0.275
-0.275
-0.265
-0.26
-0.26
-0.265
-0.265
-0.255
-0.25
-0.245
-0.245
-0.24
-0.235
-0.235
-0.225
-0.215
-0.21
-0.215
-0.23
-0.245
-0.25
-0.26
-0.27
-0.275
-0.275
-0.275
-0.28
-0.275
-0.265
-0.265
-0.27
-0.28
-0.285
-0.285
-0.29
-0.295
-0.295
-0.29
-0.295
-0.295
-0.285
-0.26
-0.255
-0.255
-0.255
-0.25
-0.25
-0.25
-0.245
-0.245
-0.245
-0.245
-0.235
-0.225
-0.215
-0.205
-0.195
-0.17
-0.145
-0.145
-0.145
-0.145
-0.125
-0.07
0.005
0.045
0.045
-0.03
-0.115
-0.15
-0.165
-0.185
-0.215
-0.23
-0.24
-0.24
-0.245
-0.245
-0.255
-0.27
-0.275
-0.275
-0.27
-0.265
-0.265
-0.27
-0.27
-0.27
-0.275
-0.275
-0.275
-0.275
-0.29
-0.3
-0.305
-0.305
-0.305
-0.295
-0.26
-0.23
-0.22
-0.22
-0.225
-0.225
-0.215
-0.195
-0.195
-0.195
-0.19
-0.145
-0.095
-0.065
-0.05
-0.045
-0.045
-0.055
-0.08
-0.115
-0.14
-0.145
-0.145
-0.155
-0.19
-0.205
-0.205
-0.21
-0.245
-0.285
-0.3
-0.305
-0.31
-0.315
-0.315
-0.315
-0.325
-0.345
-0.355
-0.355
-0.355
-0.345
-0.295
-0.15
0.07
0.345
0.665
1.025
1.32
1.44
1.395
1.16
0.86
0.555
0.315
0.16
0.055
-0.035
-0.12
-0.18
-0.22
-0.265
-0.315
-0.355
-0.365
-0.365
-0.37
-0.395
-0.41
-0.41
-0.41
-0.405
-0.4
-0.395
-0.405
-0.425
-0.44
-0.44
-0.44
-0.425
-0.415
-0.41
-0.41
-0.415
-0.4
-0.39
-0.385
-0.39
-0.39
-0.385
-0.38
-0.38
-0.38
-0.38
-0.37
-0.375
-0.375
-0.375
-0.37
-0.365
-0.36
-0.345
-0.34
-0.345
-0.355
-0.36
-0.36
-0.36
-0.36
-0.36
-0.36
-0.36
-0.355
-0.345
-0.335
-0.32
-0.32
-0.315
-0.31
-0.3
-0.295
-0.29
-0.28
-0.265
-0.25
-0.235
-0.21
-0.185
-0.17
-0.17
-0.17
-0.175
-0.185
-0.195
-0.2
-0.2
-0.195
-0.2
-0.21
-0.21
-0.205
-0.21
-0.21
-0.21
-0.21
-0.215
-0.215
-0.22
-0.22
-0.215
-0.22
-0.22
-0.22
-0.23
-0.23
-0.23
-0.225
-0.22
-0.225
-0.22
-0.2
-0.18
-0.18
-0.185
-0.185
-0.185
-0.18
-0.18
-0.18
-0.17
-0.145
-0.12
-0.1
-0.085
-0.08
-0.08
-0.075
-0.07
-0.065
-0.065
-0.065
-0.07
-0.1
-0.14
-0.165
-0.175
-0.19
-0.215
-0.23
-0.235
-0.235
-0.255
-0.28
-0.285
-0.285
-0.28
-0.285
-0.29
-0.29
-0.285
-0.27
-0.27
-0.27
-0.28
-0.28
-0.235
-0.065
0.21
0.6
1.08
1.585
1.98
2.155
2.11
1.785
1.305
0.8
0.385
0.125
-0.025
-0.11
-0.185
-0.255
-0.315
-0.37
-0.415
-0.425
-0.425
-0.425
-0.425
-0.435
-0.435
-0.415
-0.39
-0.38
-0.375
-0.37
-0.37
-0.37
-0.37
-0.365
-0.32
-0.28
-0.26
-0.25
-0.245
-0.245
-0.245
-0.245
-0.245
-0.25
-0.28
-0.32
-0.35
-0.36
-0.36
-0.35
-0.34
-0.335
-0.335
-0.335
-0.335
-0.335
-0.34
-0.34
-0.34
-0.335
-0.34
-0.34
-0.34
-0.34
-0.345
-0.35
-0.35
-0.35
-0.35
-0.355
-0.37
-0.38
-0.385
-0.385
-0.385
-0.375
-0.36
-0.335
-0.305
-0.285
-0.265
-0.265
-0.265
-0.27
-0.265
-0.27
-0.28
-0.305
-0.32
-0.325
-0.315
-0.255
-0.19
-0.165
-0.165
-0.185
-0.2
-0.2
-0.205
-0.21
-0.21
-0.22
-0.235
-0.24
-0.245
-0.255
-0.28
-0.29
-0.29
-0.28
-0.275
-0.275
-0.275
-0.28
-0.29
-0.315
-0.335
-0.335
-0.315
-0.275
-0.26
-0.255
-0.25
-0.255
-0.255
-0.25
-0.24
-0.245
-0.25
-0.25
-0.245
-0.245
-0.235
-0.225
-0.215
-0.215
-0.215
-0.225
-0.25
-0.27
-0.29
-0.32
-0.35
-0.38
-0.415
-0.45
-0.47
-0.475
-0.475
-0.46
-0.435
-0.41
-0.385
-0.365
-0.35
-0.34
-0.34
-0.36
-0.385
-0.405
-0.4
-0.285
-0.05
0.255
0.615
0.995
1.31
1.46
1.475
1.325
1.05
0.715
0.385
0.13
-0.02
-0.12
-0.195
-0.27
-0.325
-0.365
-0.39
-0.415
-0.445
-0.47
-0.48
-0.48
-0.49
-0.495
-0.5
-0.495
-0.49
-0.47
-0.455
-0.445
-0.445
-0.445
-0.44
-0.435
-0.43
-0.425
-0.415
-0.405
-0.4
-0.405
-0.415
-0.415
-0.41
-0.39
-0.36
-0.345
-0.335
-0.345
-0.37
-0.39
-0.39
-0.39
-0.39
-0.38
-0.365
-0.35
-0.345
-0.34
-0.34
-0.34
-0.36
-0.38
-0.39
-0.39
-0.395
-0.4
-0.39
-0.365
-0.34
-0.325
-0.31
-0.3
-0.295
-0.29
-0.29
-0.285
-0.29
-0.3
-0.315
-0.32
-0.32
-0.31
-0.3
-0.295
-0.3
-0.315
-0.32
-0.325
-0.32
-0.32
-0.32
-0.315
-0.315
-0.33
-0.34
-0.345
-0.345
-0.345
-0.345
-0.345
-0.34
-0.34
-0.36
-0.4
-0.435
-0.455
-0.465
-0.47
-0.47
-0.455
-0.445
-0.435
-0.42
-0.37
-0.305
-0.245
-0.16
-0.025
0.145
0.315
0.445
0.525
0.56
0.57
0.57
0.565
0.565
0.54
0.51
0.475
0.445
0.4
0.325
0.215
0.105
-0.005
-0.08
-0.1
-0.08
-0.035
-0.035
-0.15
-0.31
-0.42
-0.46
-0.47
-0.47
-0.435
-0.37
-0.305
-0.245
-0.22
-0.22
-0.225
-0.235
-0.245
-0.28
-0.305
-0.295
-0.17
-0.01
0.155
0.365
0.65
0.945
1.155
1.23
1.185
0.99
0.745
0.51
0.325
0.175
0.05
-0.035
-0.085
-0.11
-0.13
-0.145
-0.165
-0.185
-0.21
-0.225
-0.225
-0.225
-0.225
-0.23
-0.235
-0.24
-0.275
-0.32
-0.345
-0.35
-0.355
-0.37
-0.39
-0.4
-0.41
-0.465
-0.535
-0.555
-0.54
-0.46
-0.365
-0.295
-0.265
-0.265
-0.315
-0.375
-0.41
-0.42
-0.42
-0.39
-0.37
-0.36
-0.355
-0.35
-0.35
-0.365
-0.38
-0.375
-0.305
-0.245
-0.235
-0.245
-0.27
-0.28
-0.28
-0.285
-0.285
-0.29
-0.31
-0.35
-0.405
-0.455
-0.51
-0.56
-0.585
-0.58
-0.515
-0.43
-0.345
-0.26
-0.195
-0.18
-0.185
-0.215
-0.245
-0.26
-0.26
-0.255
-0.245
-0.245
-0.245
-0.24
-0.22
-0.195
-0.19
-0.185
-0.185
-0.18
-0.18
-0.175
-0.17
-0.165
-0.17
-0.17
-0.17
-0.155
-0.14
-0.13
-0.125
-0.125
-0.13
-0.135
-0.14
-0.135
-0.145
-0.175
-0.195
-0.205
-0.22
-0.25
-0.275
-0.275
-0.275
-0.28
-0.29
-0.31
-0.325
-0.34
-0.36
-0.375
-0.39
-0.41
-0.455
-0.52
-0.57
-0.585
-0.59
-0.59
-0.59
-0.615
-0.67
-0.725
-0.76
-0.795
-0.825
-0.83
-0.815
-0.75
-0.665
-0.56
-0.46
-0.37
-0.31
-0.29
-0.29
-0.33
-0.355
-0.36
-0.3
-0.17
0.055
0.45
1.02
1.635
2.09
2.27
2.2
1.825
1.3
0.78
0.39
0.155
0.02
-0.095
-0.205
-0.275
-0.295
-0.3
-0.31
-0.315
-0.31
-0.305
-0.305
-0.305
-0.3
-0.275
-0.255
-0.25
-0.25
-0.24
-0.235
-0.225
-0.215
-0.21
-0.215
-0.235
-0.27
-0.31
-0.33
-0.34
-0.34
-0.32
-0.305
-0.31
-0.315
-0.32
-0.315
-0.315
-0.315
-0.305
-0.28
-0.27
-0.27
-0.275
-0.285
-0.3
-0.305
-0.31
-0.315
-0.33
-0.335
-0.325
-0.275
-0.24
-0.24
-0.245
-0.265
-0.27
-0.27
-0.275
-0.275
-0.285
-0.3
-0.31
-0.315
-0.31
-0.3
-0.295
-0.29
-0.285
-0.27
-0.26
-0.25
-0.245
-0.245
-0.245
-0.245
-0.24
-0.235
-0.24
-0.245
-0.24
-0.24
-0.26
-0.295
-0.31
-0.305
-0.295
-0.255
-0.23
-0.225
-0.225
-0.235
-0.245
-0.25
-0.25
-0.25
-0.255
-0.25
-0.235
-0.235
-0.235
-0.245
-0.25
-0.265
-0.275
-0.285
-0.285
-0.265
-0.205
-0.17
-0.155
-0.155
-0.16
-0.165
-0.165
-0.16
-0.16
-0.15
-0.135
-0.11
-0.085
-0.045
-0.005
0
-0.005
-0.025
-0.03
-0.03
-0.03
-0.03
-0.04
-0.09
-0.135
-0.145
-0.145
-0.145
-0.15
-0.155
-0.155
-0.135
-0.115
-0.11
-0.115
-0.11
-0.105
-0.1
-0.1
-0.12
-0.145
-0.155
-0.055
0.185
0.485
0.84
1.27
1.715
2.055
2.18
2.05
1.655
1.175
0.74
0.405
0.19
0.06
-0.025
-0.095
-0.16
-0.205
-0.22
-0.23
-0.235
-0.235
-0.245
-0.29
-0.35
-0.38
-0.38
-0.365
-0.34
-0.33
-0.33
-0.325
-0.34
-0.355
-0.36
-0.355
-0.355
-0.355
-0.345
-0.325
-0.32
-0.315
-0.295
-0.255
-0.23
-0.23
-0.235
-0.255
-0.27
-0.275
-0.275
-0.275
-0.28
-0.315
-0.35
-0.355
-0.32
-0.275
-0.26
-0.26
-0.285
-0.315
-0.32
-0.315
-0.285
-0.27
-0.27
-0.27
-0.27
-0.27
-0.275
-0.275
-0.245
-0.22
-0.21
-0.21
-0.21
-0.205
-0.195
-0.175
-0.165
-0.155
-0.155
-0.15
-0.145
-0.145
-0.145
-0.145
-0.15
-0.175
-0.205
-0.215
-0.205
-0.165
-0.145
-0.145
-0.15
-0.15
-0.135
-0.1
-0.075
-0.065
-0.065
-0.09
-0.12
-0.13
-0.135
-0.14
-0.145
-0.145
-0.145
-0.145
-0.15
-0.145
-0.105
-0.055
-0.04
-0.04
-0.065
-0.085
-0.09
-0.075
-0.055
-0.045
-0.04
-0.035
-0.035
-0.04
-0.06
-0.07
-0.07
-0.065
-0.05
-0.02
0.025
0.07
0.075
0.045
-0.01
-0.04
-0.045
-0.055
-0.055
-0.03
-0.01
-0.01
-0.03
-0.05
-0.055
-0.06
-0.08
-0.115
-0.145
-0.165
-0.17
-0.165
-0.155
-0.15
-0.145
-0.13
-0.105
-0.095
-0.09
-0.045
0.08
0.3
0.585
0.94
1.345
1.7
1.87
1.85
1.605
1.275
0.945
0.66
0.445
0.29
0.155
0.015
-0.105
-0.17
-0.195
-0.22
-0.245
-0.245
-0.22
-0.205
-0.215
-0.275
-0.305
-0.305
-0.255
-0.2
-0.175
-0.175
-0.185
-0.21
-0.215
-0.215
-0.215
-0.205
-0.16
-0.11
-0.1
-0.13
-0.205
-0.235
-0.25
-0.265
-0.275
-0.28
-0.275
-0.24
-0.21
-0.215
-0.28
-0.34
-0.35
-0.325
-0.27
-0.255
-0.255
-0.275
-0.285
-0.295
-0.295
-0.295
-0.295
-0.295
-0.3
-0.3
-0.295
-0.3
-0.295
-0.28
-0.265
-0.26
-0.255
-0.235
-0.2
-0.15
-0.11
-0.09
-0.085
-0.085
-0.095
-0.1
-0.1
-0.095
-0.1
-0.115
-0.125
-0.13
-0.15
-0.175
-0.185
-0.185
-0.185
-0.17
-0.15
-0.14
-0.14
-0.145
-0.155
-0.155
-0.155
-0.16
-0.165
-0.185
-0.2
-0.21
-0.21
-0.18
-0.165
-0.175
-0.195
-0.195
-0.175
-0.165
-0.16
-0.155
-0.115
-0.08
-0.075
-0.07
-0.06
-0.03
-0.02
-0.02
-0.015
-0.01
-0.01
-0.045
-0.11
-0.135
-0.14
-0.12
-0.08
-0.065
-0.065
-0.06
-0.045
-0.02
-0.01
-0.01
-0.025
-0.07
-0.095
-0.095
-0.05
-0.02
-0.015
-0.06
-0.085
-0.09
-0.07
-0.06
-0.06
-0.06
-0.055
-0.055
-0.055
-0.04
-0.03
-0.03
-0.03
-0.035
-0.005
0.14
0.355
0.575
0.83
1.13
1.38
1.46
1.315
1
0.715
0.525
0.39
0.29
0.23
0.195
0.145
0.06
-0.035
-0.09
-0.095
-0.085
-0.075
-0.08
-0.115
-0.125
-0.05
0.08
0.2
0.275
0.295
0.225
0.07
-0.065
-0.15
-0.205
-0.26
-0.3
-0.305
-0.27
-0.22
-0.205
-0.195
-0.185
-0.175
-0.17
-0.165
-0.165
-0.165
-0.165
-0.165
-0.16
-0.165
-0.17
-0.165
-0.165
-0.16
-0.145
-0.12
-0.11
-0.11
-0.125
-0.14
-0.155
-0.155
-0.16
-0.155
-0.155
-0.155
-0.175
-0.185
-0.17
-0.13
-0.115
-0.115
-0.115
-0.11
-0.095
-0.065
-0.05
-0.045
-0.055
-0.065
-0.065
-0.045
-0.015
-0.005
-0.005
-0.04
-0.105
-0.145
-0.155
-0.15
-0.115
-0.08
-0.05
-0.03
-0.025
-0.03
-0.04
-0.04
-0.035
-0.025
-0.03
-0.035
-0.055
-0.07
-0.075
-0.08
-0.08
-0.09
-0.105
-0.115
-0.12
-0.135
-0.155
-0.16
-0.16
-0.155
-0.155
-0.125
-0.055
0.005
0.03
0.025
0.01
0.005
0.01
0.03
0.035
0.04
0.04
0.045
0.04
0.04
0.04
0.04
0.04
0.03
0.025
0.025
0.03
0.04
0.06
0.085
0.105
0.105
0.105
0.095
0.085
0.07
0.04
0.01
-0.015
-0.03
-0.035
-0.045
-0.08
-0.125
-0.17
-0.205
-0.27
-0.335
-0.37
-0.345
-0.18
0.11
0.485
0.865
1.14
1.255
1.23
1.015
0.725
0.44
0.225
0.085
-0.005
-0.06
-0.065
-0.065
-0.12
-0.285
-0.37
-0.28
-0.025
0.15
0.195
0.19
0.145
0.06
-0.035
-0.095
-0.125
-0.165
-0.225
-0.255
-0.245
-0.195
-0.165
-0.15
-0.12
-0.085
-0.07
-0.07
-0.085
-0.105
-0.12
-0.12
-0.125
-0.125
-0.14
-0.17
-0.18
-0.175
-0.155
-0.135
-0.13
-0.125
-0.12
-0.115
-0.1
-0.075
-0.06
-0.055
-0.06
-0.055
-0.04
-0.025
-0.02
-0.025
-0.05
-0.075
-0.105
-0.14
-0.165
-0.175
-0.18
-0.18
-0.175
-0.17
-0.17
-0.14
-0.075
-0.035
-0.03
-0.03
-0.035
-0.03
-0.035
-0.04
-0.035
-0.035
-0.035
-0.035
-0.035
-0.03
-0.04
-0.06
-0.06
-0.055
-0.05
-0.06
-0.085
-0.085
-0.075
-0.075
-0.085
-0.1
-0.095
-0.085
-0.075
-0.065
-0.065
-0.065
-0.07
-0.075
-0.075
-0.075
-0.065
-0.05
-0.045
-0.05
-0.085
-0.095
-0.07
0
0.03
0.035
0.025
0.02
0.02
0.025
0.025
0.025
0.02
0.02
0.05
0.065
0.07
0.065
0.06
0.065
0.06
0.025
-0.015
-0.02
-0.015
-0.02
-0.02
-0.02
-0.015
-0.03
-0.04
-0.04
-0.04
-0.04
-0.045
-0.045
-0.045
-0.04
-0.025
-0.025
-0.085
-0.16
-0.195
-0.2
-0.175
-0.105
0
0.155
0.405
0.78
1.185
1.495
1.61
1.585
1.405
1.165
0.875
0.575
0.34
0.215
0.175
0.155
0.11
0.02
-0.075
-0.15
-0.17
-0.17
-0.145
-0.115
-0.105
-0.11
-0.12
-0.145
-0.15
-0.155
-0.145
-0.13
-0.115
-0.115
-0.12
-0.15
-0.175
-0.185
-0.215
-0.29
-0.38
-0.44
-0.455
-0.445
-0.41
-0.4
-0.415
-0.44
-0.445
-0.43
-0.42
-0.425
-0.465
-0.48
-0.465
-0.405
-0.35
-0.325
-0.32
-0.325
-0.335
-0.34
-0.335
-0.31
-0.295
-0.29
-0.29
-0.29
-0.275
-0.255
-0.245
-0.25
-0.245
-0.23
-0.225
-0.225
-0.245
-0.245
-0.23
-0.195
-0.17
-0.15
-0.135
-0.115
-0.09
-0.05
-0.01
0
-0.005
-0.04
-0.055
-0.05
-0.05
-0.05
-0.05
-0.05
-0.05
-0.035
-0.02
-0.015
-0.015
-0.03
-0.045
-0.045
-0.045
-0.045
-0.045
-0.04
-0.03
-0.03
-0.03
-0.025
-0.02
-0.015
-0.005
0.005
0.02
0.04
0.055
0.065
0.065
0.065
0.065
0.055
0.045
0.04
0.02
-0.005
-0.02
-0.025
-0.035
-0.045
-0.05
-0.065
-0.075
-0.07
-0.01
0.05
0.095
0.11
0.105
0.045
-0.1
-0.35
-0.59
-0.69
-0.685
-0.61
-0.58
-0.595
-0.65
-0.665
-0.6
-0.445
-0.31
-0.245
-0.23
-0.225
-0.2
-0.175
-0.17
-0.175
-0.19
-0.195
-0.205
-0.21
-0.215
-0.215
-0.22
-0.225
-0.225
-0.22
-0.225
-0.225
-0.225
-0.245
-0.295
-0.34
-0.355
-0.355
-0.375
-0.395
-0.41
-0.41
-0.405
-0.39
-0.38
-0.375
-0.375
-0.375
-0.375
-0.375
-0.37
-0.37
-0.36
-0.335
-0.32
-0.32
-0.32
-0.32
-0.31
-0.31
-0.305
-0.295
-0.275
-0.265
-0.265
-0.275
-0.285
-0.285
-0.285
-0.29
-0.295
-0.305
-0.31
-0.315
-0.29
-0.27
-0.27
-0.305
-0.33
-0.335
-0.34
-0.35
-0.37
-0.38
-0.385
-0.385
-0.38
-0.375
-0.385
-0.415
-0.44
-0.465
-0.485
-0.525
-0.56
-0.575
-0.575
-0.58
-0.595
-0.64
-0.67
-0.675
-0.675
-0.675
-0.67
-0.675
-0.675
-0.675
-0.685
-0.695
-0.7
-0.705
-0.71
-0.71
-0.715
-0.7
-0.685
-0.68
-0.7
-0.745
-0.775
-0.79
-0.795
-0.795
-0.79
-0.77
-0.76
-0.76
-0.755
-0.74
-0.72
-0.71
-0.7
-0.69
-0.675
-0.67
-0.665
-0.66
-0.655
-0.65
-0.63
-0.595
-0.58
-0.575
-0.56
-0.52
-0.49
-0.49
-0.49
-0.495
-0.48
-0.46
-0.46
-0.47
-0.5
-0.52
-0.53
-0.52
-0.455
-0.385
-0.36
-0.36
-0.36
-0.36
-0.365
-0.37
-0.395
-0.405
-0.415
-0.415
-0.415
-0.405
-0.39
-0.375
-0.37
-0.375
-0.395
-0.41
-0.41
-0.4
-0.375
-0.365
-0.36
-0.36
-0.355
-0.355
-0.35
-0.35
-0.385
-0.445
-0.455
-0.29
0.035
0.44
0.89
1.355
1.75
1.96
1.94
1.61
1.105
0.59
0.18
-0.105
-0.315
-0.47
-0.57
-0.625
-0.655
-0.675
-0.69
-0.695
-0.68
-0.65
-0.64
-0.64
-0.645
-0.65
-0.65
-0.655
-0.655
-0.655
-0.66
-0.67
-0.685
-0.69
-0.695
-0.695
-0.695
-0.695
-0.725
-0.78
-0.805
-0.81
-0.805
-0.8
-0.8
-0.8
-0.795
-0.77
-0.73
-0.695
-0.675
-0.67
-0.675
-0.68
-0.665
-0.625
-0.595
-0.59
-0.585
-0.575
-0.565
-0.56
-0.56
-0.565
-0.57
-0.57
-0.56
-0.555
-0.56
-0.565
-0.57
-0.57
-0.565
-0.57
-0.57
-0.565
-0.54
-0.51
-0.47
-0.435
-0.415
-0.41
-0.41
-0.4
-0.37
-0.345
-0.335
-0.335
-0.325
-0.305
-0.29
-0.275
-0.25
-0.22
-0.2
-0.18
-0.16
-0.15
-0.15
-0.165
-0.175
-0.17
-0.15
-0.11
-0.095
-0.09
-0.095
-0.1
-0.1
-0.095
-0.09
-0.08
-0.08
-0.075
-0.07
-0.07
-0.07
-0.065
-0.05
-0.045
-0.04
-0.035
-0.02
-0.01
0
0.005
0.005
-0.01
-0.02
-0.025
-0.02
0
0.015
0.015
0.02
0.02
0.025
0.025
0.025
0.03
0.015
0.005
0.01
0.025
0.025
0.02
0.01
0.005
-0.01
-0.025
-0.04
-0.045
-0.045
-0.05
-0.05
-0.045
-0.045
-0.055
-0.06
-0.06
-0.065
-0.075
-0.04
0.155
0.465
0.86
1.33
1.78
2.065
2.125
1.985
1.7
1.34
0.94
0.57
0.285
0.095
-0.02
-0.095
-0.145
-0.165
-0.165
-0.17
-0.175
-0.18
-0.19
-0.215
-0.225
-0.23
-0.225
-0.225
-0.225
-0.2
-0.16
-0.15
-0.15
-0.16
-0.16
-0.16
-0.165
-0.17
-0.175
-0.17
-0.17
-0.175
-0.17
-0.145
-0.12
-0.11
-0.11
-0.105
-0.11
-0.11
-0.11
-0.105
-0.11
-0.115
-0.115
-0.12
-0.125
-0.125
-0.12
-0.1
-0.095
-0.1
-0.105
-0.1
-0.09
-0.09
-0.09
-0.09
-0.09
-0.1
-0.11
-0.11
-0.095
-0.065
-0.03
-0.01
0
0.01
0.01
0.005
0.01
0.025
0.03
0.025
0.015
0.02
0.02
0.035
0.045
0.05
0.035
0.02
0.015
0.02
0.02
0.015
0.005
0
0
0
-0.005
-0.005
-0.005
0
0.01
0.01
0
-0.02
-0.025
-0.02
-0.015
-0.02
-0.035
-0.045
-0.04
0
0.025
0.03
0.025
0.025
0.025
0.025
0.025
0.03
0.035
0.03
0.03
0.035
0.05
0.08
0.11
0.12
0.125
0.125
0.125
0.125
0.12
0.095
0.07
0.055
0.05
0.05
0.065
0.075
0.075
0.06
0.05
0.045
0.04
0
-0.03
-0.035
-0.03
-0.025
-0.025
-0.035
-0.04
-0.045
-0.015
0.005
0.015
0.01
0.01
0.085
0.28
0.535
0.855
1.25
1.645
1.88
1.91
1.735
1.44
1.12
0.81
0.545
0.345
0.18
0.05
-0.03
-0.06
-0.075
-0.105
-0.145
-0.155
-0.155
-0.135
-0.13
-0.13
-0.145
-0.165
-0.17
-0.17
-0.145
-0.125
-0.13
-0.145
-0.155
-0.155
-0.16
-0.16
-0.16
-0.16
-0.16
-0.165
-0.19
-0.21
-0.22
-0.225
-0.225
-0.215
-0.21
-0.21
-0.215
-0.215
-0.21
-0.23
-0.255
-0.27
-0.275
-0.28
-0.285
-0.295
-0.295
-0.305
-0.315
-0.32
-0.33
-0.33
-0.33
-0.33
-0.325
-0.32
-0.32
-0.325
-0.33
-0.325
-0.3
-0.285
-0.28
-0.275
-0.27
-0.255
-0.24
-0.22
-0.19
-0.17
-0.17
-0.165
-0.17
-0.185
-0.21
-0.225
-0.225
-0.21
-0.195
-0.19
-0.175
-0.165
-0.165
-0.165
-0.165
-0.17
-0.165
-0.16
-0.155
-0.16
-0.16
-0.13
-0.11
-0.11
-0.115
-0.115
-0.095
-0.075
-0.075
-0.09
-0.095
-0.09
-0.065
-0.04
-0.03
-0.025
-0.03
-0.04
-0.045
-0.045
-0.04
-0.025
-0.015
-0.005
-0.005
-0.005
-0.005
0.005
0.05
0.09
0.105
0.105
0.11
0.11
0.1
0.08
0.06
0.05
0.045
0.045
0.04
0.02
0.005
0
-0.005
-0.01
-0.02
-0.04
-0.05
-0.05
-0.045
-0.04
-0.035
-0.03
-0.025
-0.015
-0.015
-0.04
-0.055
0.01
0.225
0.535
0.915
1.39
1.875
2.205
2.295
2.125
1.73
1.265
0.82
0.475
0.235
0.095
0.02
-0.02
-0.05
-0.09
-0.13
-0.15
-0.155
-0.15
-0.14
-0.14
-0.145
-0.15
-0.15
-0.15
-0.15
-0.15
-0.15
-0.14
-0.14
-0.135
-0.13
-0.12
-0.125
-0.13
-0.13
-0.14
-0.17
-0.185
-0.185
-0.175
-0.175
-0.175
-0.18
-0.185
-0.19
-0.185
-0.17
-0.16
-0.16
-0.17
-0.18
-0.18
-0.175
-0.175
-0.18
-0.175
-0.16
-0.13
-0.12
-0.12
-0.135
-0.16
-0.165
-0.165
-0.16
-0.165
-0.165
-0.165
-0.16
-0.125
-0.09
-0.07
-0.065
-0.06
-0.055
-0.055
-0.05
-0.04
-0.045
-0.045
-0.045
-0.04
-0.04
-0.01
0.015
0.035
0.035
0.035
0.015
0
0
-0.005
-0.02
-0.04
-0.055
-0.06
-0.065
-0.065
-0.06
-0.055
-0.05
-0.045
-0.04
-0.045
-0.05
-0.05
-0.055
-0.08
-0.095
-0.095
-0.08
-0.065
-0.06
-0.06
-0.06
-0.06
-0.065
-0.085
-0.1
-0.095
-0.1
-0.095
-0.08
-0.06
-0.05
-0.05
-0.05
-0.045
-0.05
-0.05
-0.05
-0.045
-0.045
-0.05
-0.05
-0.05
-0.065
-0.085
-0.09
-0.09
-0.085
-0.09
-0.09
-0.095
-0.095
-0.1
-0.105
-0.11
-0.12
-0.135
-0.14
-0.14
-0.14
-0.14
-0.14
-0.14
-0.14
-0.14
-0.15
-0.135
0.02
0.285
0.6
0.975
1.415
1.815
2.05
2.08
1.875
1.515
1.095
0.715
0.425
0.24
0.115
0.02
-0.05
-0.105
-0.125
-0.135
-0.135
-0.14
-0.15
-0.165
-0.17
-0.155
-0.14
-0.14
-0.16
-0.17
-0.165
-0.165
-0.17
-0.17
-0.175
-0.185
-0.19
-0.185
-0.175
-0.175
-0.175
-0.185
-0.2
-0.21
-0.22
-0.225
-0.22
-0.225
-0.245
-0.255
-0.255
-0.255
-0.28
-0.31
-0.325
-0.33
-0.325
-0.32
-0.315
-0.31
-0.315
-0.315
-0.315
-0.31
-0.305
-0.315
-0.325
-0.325
-0.3
-0.285
-0.285
-0.295
-0.295
-0.29
-0.275
-0.255
-0.25
-0.245
-0.235
-0.19
-0.145
-0.125
-0.125
-0.13
-0.135
-0.135
-0.14
-0.145
-0.15
-0.145
-0.15
-0.14
-0.14
-0.145
-0.17
-0.19
-0.19
-0.185
-0.17
-0.165
-0.165
-0.16
-0.16
-0.16
-0.16
-0.16
-0.16
-0.165
-0.17
-0.155
-0.115
-0.1
-0.105
-0.12
-0.125
-0.13
-0.11
-0.08
-0.065
-0.065
-0.09
-0.105
-0.095
-0.04
-0.005
0
0
-0.005
-0.005
-0.005
0
0
-0.02
-0.035
-0.03
0
0.045
0.075
0.085
0.085
0.08
0.065
0.045
0.035
0.03
0.025
0.01
0.005
0.01
0.005
-0.005
-0.015
-0.025
-0.035
-0.055
-0.07
-0.07
-0.075
-0.08
-0.075
-0.065
-0.065
-0.065
-0.075
-0.08
-0.05
0.105
0.325
0.605
0.97
1.385
1.74
1.93
1.95
1.775
1.465
1.1
0.765
0.51
0.335
0.22
0.13
0.045
-0.015
-0.035
-0.035
-0.035
-0.045
-0.075
-0.115
-0.145
-0.155
-0.16
-0.155
-0.15
-0.15
-0.15
-0.15
-0.145
-0.15
-0.15
-0.15
-0.15
-0.15
-0.15
-0.15
-0.145
-0.15
-0.15
-0.155
-0.155
-0.15
-0.15
-0.155
-0.175
-0.18
-0.18
-0.185
-0.18
-0.175
-0.18
-0.18
-0.175
-0.155
-0.14
-0.14
-0.165
-0.19
-0.195
-0.2
-0.195
-0.19
-0.195
-0.195
-0.195
-0.195
-0.19
-0.19
-0.18
-0.165
-0.15
-0.15
-0.15
-0.14
-0.125
-0.11
-0.085
-0.06
-0.05
-0.045
-0.035
0
0.02
0.025
0.025
0.01
-0.005
-0.01
-0.015
-0.015
-0.02
-0.025
-0.035
-0.035
-0.035
-0.025
-0.005
0.015
0.025
0.02
0.015
0.01
0.005
0.01
0.01
0.015
0.015
0.015
0.015
0.015
0.015
0.015
0.02
0.02
0.015
0.015
0.015
0.01
0.01
0.01
0.01
0.01
0.01
0.015
0.025
0.035
0.045
0.045
0.045
0.04
0.035
0.03
0.025
0.035
0.065
0.085
0.09
0.095
0.09
0.09
0.09
0.085
0.06
0.045
0.04
0.04
0.04
0.03
0.005
-0.005
-0.005
-0.005
-0.005
-0.005
0
-0.005
-0.01
-0.025
-0.03
-0.035
-0.04
-0.045
-0.045
-0.05
0.025
0.205
0.47
0.82
1.25
1.615
1.805
1.825
1.67
1.415
1.125
0.835
0.575
0.37
0.23
0.145
0.085
0.04
0
-0.02
-0.03
-0.035
-0.035
-0.045
-0.085
-0.11
-0.125
-0.125
-0.125
-0.13
-0.13
-0.13
-0.125
-0.125
-0.125
-0.125
-0.125
-0.125
-0.13
-0.125
-0.12
-0.125
-0.135
-0.135
-0.125
-0.115
-0.11
-0.11
-0.115
-0.135
-0.145
-0.15
-0.14
-0.125
-0.13
-0.14
-0.15
-0.155
-0.16
-0.165
-0.17
-0.175
-0.185
-0.185
-0.185
-0.18
-0.185
-0.185
-0.185
-0.185
-0.19
-0.2
-0.2
-0.185
-0.15
-0.135
-0.13
-0.125
-0.11
-0.08
-0.06
-0.055
-0.045
-0.05
-0.045
-0.045
-0.035
-0.035
-0.035
-0.035
-0.03
-0.025
-0.02
-0.025
-0.035
-0.035
-0.04
-0.045
-0.045
-0.04
-0.045
-0.05
-0.05
-0.05
-0.05
-0.045
-0.045
-0.045
-0.05
-0.05
-0.04
-0.03
-0.03
-0.035
-0.035
-0.035
-0.025
-0.005
0
0
0
0
-0.005
-0.005
-0.005
-0.01
-0.015
-0.01
-0.01
-0.01
-0.02
-0.025
-0.02
-0.01
0.01
0.025
0.025
0.035
0.04
0.04
0.03
0.01
-0.005
-0.01
-0.01
-0.005
-0.005
-0.005
-0.005
-0.02
-0.065
-0.095
-0.105
-0.1
-0.1
-0.105
-0.115
-0.125
-0.125
-0.11
-0.085
-0.075
-0.075
-0.08
-0.08
-0.075
-0.035
0.07
0.25
0.48
0.79
1.14
1.425
1.565
1.57
1.39
1.105
0.81
0.57
0.4
0.285
0.18
0.08
0
-0.055
-0.095
-0.125
-0.135
-0.135
-0.13
-0.12
-0.12
-0.145
-0.165
-0.165
-0.165
-0.165
-0.17
-0.175
-0.175
-0.175
-0.185
-0.19
-0.185
-0.15
-0.145
-0.155
-0.18
-0.185
-0.19
-0.195
-0.21
-0.22
-0.225
-0.225
-0.225
-0.225
-0.225
-0.225
-0.225
-0.225
-0.225
-0.235
-0.245
-0.245
-0.245
-0.245
-0.255
-0.275
-0.285
-0.29
-0.29
-0.29
-0.29
-0.31
-0.32
-0.315
-0.3
-0.29
-0.285
-0.285
-0.27
-0.25
-0.23
-0.22
-0.195
-0.16
-0.15
-0.145
-0.145
-0.13
-0.115
-0.115
-0.11
-0.11
-0.105
-0.1
-0.09
-0.07
-0.06
-0.06
-0.065
-0.075
-0.085
-0.09
-0.085
-0.08
-0.08
-0.085
-0.085
-0.085
-0.08
-0.075
-0.055
-0.04
-0.035
-0.04
-0.045
-0.045
-0.045
-0.05
-0.055
-0.055
-0.055
-0.05
-0.055
-0.055
-0.055
-0.04
-0.035
-0.035
-0.035
-0.03
-0.035
-0.035
-0.03
-0.025
-0.03
-0.03
-0.03
-0.025
-0.03
-0.03
-0.03
-0.01
0.02
0.03
0.03
0.03
0.03
0.03
0.025
0.015
-0.005
-0.02
-0.02
-0.02
-0.02
-0.035
-0.05
-0.05
-0.045
-0.045
-0.05
-0.055
-0.055
-0.055
-0.055
-0.05
-0.05
-0.05
-0.05
-0.04
-0.005
0.095
0.29
0.575
0.945
1.33
1.6
1.685
1.625
1.42
1.155
0.87
0.595
0.375
0.24
0.165
0.1
0.04
-0.005
-0.04
-0.06
-0.07
-0.085
-0.11
-0.125
-0.125
-0.12
-0.115
-0.115
-0.115
-0.11
-0.11
-0.11
-0.115
-0.12
-0.145
-0.155
-0.155
-0.135
-0.115
-0.115
-0.115
-0.115
-0.11
-0.115
-0.115
-0.125
-0.125
-0.135
-0.15
-0.17
-0.18
-0.185
-0.185
-0.18
-0.175
-0.175
-0.17
-0.16
-0.155
-0.155
-0.175
-0.195
-0.21
-0.22
-0.235
-0.25
-0.255
-0.25
-0.25
-0.25
-0.25
-0.245
-0.245
-0.245
-0.225
-0.195
-0.175
-0.155
-0.15
-0.15
-0.145
-0.145
-0.14
-0.135
-0.125
-0.115
-0.11
-0.1
-0.09
-0.085
-0.085
-0.085
-0.08
-0.085
-0.085
-0.085
-0.075
-0.08
-0.08
-0.08
-0.085
-0.085
-0.085
-0.08
-0.075
-0.075
-0.08
-0.085
-0.08
-0.06
-0.045
-0.04
-0.035
-0.035
-0.035
-0.04
-0.04
-0.035
-0.04
-0.05
-0.06
-0.06
-0.06
-0.065
-0.06
-0.045
-0.015
0.005
0.005
0.005
0.01
0.005
0
0
0.005
0.005
0.005
0.005
0.035
0.06
0.07
0.065
0.035
0.02
0.015
0.015
0.015
0.005
-0.005
-0.02
-0.035
-0.04
-0.045
-0.045
-0.05
-0.06
-0.07
-0.075
-0.075
-0.06
-0.045
-0.045
-0.045
-0.06
-0.08
-0.09
-0.015
0.165
0.42
0.74
1.125
1.485
1.69
1.715
1.545
1.27
0.98
0.7
0.475
0.305
0.19
0.11
0.05
0
-0.045
-0.09
-0.12
-0.13
-0.125
-0.115
-0.115
-0.15
-0.185
-0.19
-0.19
-0.185
-0.18
-0.175
-0.18
-0.185
-0.18
-0.175
-0.18
-0.185
-0.185
-0.19
-0.195
-0.2
-0.2
-0.18
-0.17
-0.175
-0.18
-0.19
-0.2
-0.215
-0.225
-0.225
-0.22
-0.22
-0.22
-0.215
-0.21
-0.215
-0.235
-0.26
-0.265
-0.265
-0.265
-0.26
-0.26
-0.255
-0.26
-0.27
-0.28
-0.285
-0.29
-0.29
-0.275
-0.26
-0.255
-0.22
-0.15
-0.105
-0.105
-0.155
-0.19
-0.19
-0.185
-0.175
-0.16
-0.13
-0.11
-0.1
-0.095
-0.095
-0.065
-0.045
-0.04
-0.06
-0.085
-0.095
-0.09
-0.08
-0.075
-0.08
-0.08
-0.065
-0.055
-0.055
-0.055
-0.055
-0.055
-0.075
-0.09
-0.095
-0.1
-0.085
-0.07
-0.065
-0.07
-0.08
-0.095
-0.105
-0.11
-0.13
-0.155
-0.165
-0.17
-0.185
-0.225
-0.245
-0.245
-0.235
-0.235
-0.25
-0.26
-0.235
-0.19
-0.19
-0.275
-0.37
-0.4
-0.4
-0.37
-0.355
-0.345
-0.335
-0.31
-0.28
-0.26
-0.26
-0.265
-0.285
-0.305
-0.315
-0.32
-0.325
-0.33
-0.34
-0.355
-0.365
-0.365
-0.365
-0.37
-0.37
-0.365
-0.34
-0.32
-0.31
-0.305
-0.285
-0.19
-0.01
0.235
0.545
0.87
1.11
1.205
1.195
1.045
0.82
0.575
0.375
0.22
0.095
0
-0.07
-0.11
-0.135
-0.145
-0.15
-0.15
-0.165
-0.175
-0.175
-0.17
-0.17
-0.175
-0.175
-0.18
-0.185
-0.195
-0.205
-0.21
-0.205
-0.21
-0.21
-0.21
-0.205
-0.21
-0.21
-0.225
-0.23
-0.23
-0.225
-0.22
-0.22
-0.225
-0.23
-0.23
-0.225
-0.23
-0.245
-0.265
-0.27
-0.27
-0.275
-0.28
-0.285
-0.29
-0.3
-0.305
-0.305
-0.3
-0.305
-0.315
-0.325
-0.335
-0.355
-0.375
-0.39
-0.395
-0.4
-0.4
-0.38
-0.355
-0.315
-0.255
-0.195
-0.15
-0.13
-0.13
-0.12
-0.115
-0.11
-0.145
-0.18
-0.18
-0.17
-0.14
-0.115
-0.095
-0.08
-0.075
-0.075
-0.075
-0.08
-0.085
-0.09
-0.09
-0.09
-0.09
-0.105
-0.115
-0.12
-0.125
-0.135
-0.145
-0.15
-0.15
-0.15
-0.15
-0.165
-0.175
-0.18
-0.17
-0.15
-0.14
-0.15
-0.185
-0.185
-0.13
-0.07
-0.07
-0.145
-0.2
-0.2
-0.195
-0.18
-0.17
-0.155
-0.15
-0.185
-0.25
-0.27
-0.255
-0.2
-0.175
-0.175
-0.195
-0.215
-0.24
-0.27
-0.295
-0.32
-0.33
-0.33
-0.325
-0.325
-0.33
-0.34
-0.365
-0.4
-0.44
-0.485
-0.5
-0.5
-0.47
-0.445
-0.44
-0.455
-0.475
-0.48
-0.465
-0.435
-0.4
-0.31
-0.16
0.04
0.29
0.595
0.885
1.07
1.105
1.02
0.855
0.685
0.5
0.32
0.165
0.07
0.015
-0.045
-0.13
-0.2
-0.235
-0.265
-0.295
-0.305
-0.3
-0.295
-0.295
-0.295
-0.315
-0.335
-0.34
-0.335
-0.32
-0.32
-0.32
-0.32
-0.325
-0.335
-0.335
-0.33
-0.33
-0.335
-0.36
-0.365
-0.37
-0.39
-0.425
-0.435
-0.435
-0.41
-0.4
-0.4
-0.42
-0.455
-0.47
-0.475
-0.465
-0.44
-0.43
-0.43
-0.435
-0.44
-0.44
-0.445
-0.445
-0.44
-0.44
-0.45
-0.45
-0.435
-0.415
-0.415
-0.42
-0.425
-0.42
-0.415
-0.41
-0.41
-0.41
-0.405
-0.39
-0.37
-0.355
-0.345
-0.35
-0.365
-0.37
-0.365
-0.36
-0.35
-0.34
-0.33
-0.325
-0.31
-0.28
-0.245
-0.195
-0.125
-0.035
0.07
0.22
0.41
0.635
0.87
1.13
1.45
1.815
2.2
2.55
2.825
3.035
3.165
3.19
3.125
3.05
3.03
3.03
3.035
3.025
2.965
2.88
2.71
2.405
1.98
1.535
1.14
0.77
0.36
-0.06
-0.41
-0.62
-0.705
-0.735
-0.765
-0.825
-0.885
-0.91
-0.91
-0.915
-0.915
-0.915
-0.915
-0.92
-0.945
-0.975
-0.995
-1.015
-1.05
-1.105
-1.17
-1.22
-1.245
-1.27
-1.305
-1.345
-1.39
-1.415
-1.44
-1.46
-1.495
-1.545
-1.59
-1.625
-1.66
-1.705
-1.735
-1.75
-1.75
-1.75
-1.75
-1.75
-1.735
-1.7
-1.65
-1.61
-1.585
-1.56
-1.505
-1.435
-1.36
-1.305
-1.235
-1.145
-1.055
-1
-0.955
-0.895
-0.81
-0.72
-0.645
-0.59
-0.555
-0.52
-0.49
-0.465
-0.445
-0.42
-0.395
-0.365
-0.35
-0.34
-0.345
-0.345
-0.325
-0.31
-0.305
-0.31
-0.31
-0.305
-0.3
-0.3
-0.3
-0.3
-0.295
-0.3
-0.3
-0.3
-0.295
-0.295
-0.295
-0.29
-0.295
-0.315
-0.32
-0.32
-0.305
-0.3
-0.3
-0.3
-0.3
-0.3
-0.3
-0.3
-0.3
-0.295
-0.27
-0.245
-0.23
-0.225
-0.225
-0.225
-0.22
-0.205
-0.19
-0.18
-0.18
-0.17
-0.165
-0.165
-0.175
-0.21
-0.225
-0.225
-0.21
-0.205
-0.205
-0.215
-0.22
-0.215
-0.21
-0.215
-0.22
-0.225
-0.225
-0.235
-0.24
-0.225
-0.195
-0.19
-0.19
-0.19
-0.19
-0.19
-0.195
-0.21
-0.215
-0.215
-0.215
-0.225
-0.235
-0.24
-0.24
-0.22
-0.2
-0.19
-0.195
-0.205
-0.215
-0.22
-0.225
-0.23
-0.23
-0.225
-0.22
-0.195
-0.165
-0.16
-0.17
-0.2
-0.22
-0.22
-0.22
-0.24
-0.26
-0.275
-0.28
-0.295
-0.305
-0.305
-0.3
-0.3
-0.3
-0.3
-0.3
-0.295
-0.3
-0.3
-0.3
-0.3
-0.29
-0.26
-0.235
-0.23
-0.24
-0.25
-0.24
-0.17
-0.13
-0.13
-0.145
-0.165
-0.17
-0.17
-0.165
-0.16
-0.095
0.11
0.44
0.885
1.4
1.845
2.055
2.045
1.78
1.36
0.89
0.505
0.265
0.1
-0.045
-0.15
-0.215
-0.24
-0.245
-0.25
-0.245
-0.26
-0.285
-0.295
-0.3
-0.32
-0.35
-0.385
-0.39
-0.39
-0.385
-0.385
-0.39
-0.4
-0.41
-0.415
-0.41
-0.4
-0.405
-0.435
-0.475
-0.485
-0.49
-0.48
-0.465
-0.455
-0.455
-0.455
-0.455
-0.455
-0.455
-0.455
-0.46
-0.455
-0.45
-0.455
-0.455
-0.455
-0.44
-0.435
-0.435
-0.43
-0.43
-0.435
-0.44
-0.44
-0.435
-0.435
-0.43
-0.41
-0.4
-0.395
-0.405
-0.415
-0.425
-0.425
-0.425
-0.42
-0.38
-0.335
-0.325
-0.325
-0.325
-0.32
-0.31
-0.3
-0.29
-0.285
-0.285
-0.285
-0.285
-0.27
-0.25
-0.24
-0.24
-0.235
-0.215
-0.185
-0.175
-0.17
-0.175
-0.175
-0.13
-0.07
-0.045
-0.05
-0.08
-0.09
-0.085
-0.055
-0.05
-0.05
-0.065
-0.08
-0.095
-0.1
-0.095
-0.065
-0.055
-0.055
-0.06
-0.06
-0.065
-0.06
-0.055
-0.05
-0.055
-0.065
-0.07
-0.07
-0.065
-0.06
-0.055
-0.05
-0.05
-0.05
-0.045
-0.04
-0.035
-0.035
-0.04
-0.055
-0.06
-0.065
-0.07
-0.07
-0.065
-0.07
-0.09
-0.125
-0.15
-0.165
-0.17
-0.17
-0.17
-0.175
-0.205
-0.23
-0.235
-0.23
-0.23
-0.23
-0.24
-0.275
-0.29
-0.26
-0.105
0.135
0.465
0.91
1.395
1.785
1.97
1.97
1.735
1.35
0.92
0.56
0.32
0.18
0.08
-0.02
-0.115
-0.175
-0.2
-0.23
-0.255
-0.26
-0.255
-0.25
-0.245
-0.245
-0.245
-0.245
-0.25
-0.255
-0.255
-0.26
-0.26
-0.265
-0.265
-0.26
-0.265
-0.26
-0.245
-0.24
-0.245
-0.25
-0.255
-0.265
-0.285
-0.295
-0.305
-0.305
-0.31
-0.315
-0.32
-0.32
-0.335
-0.365
-0.395
-0.42
-0.43
-0.445
-0.46
-0.465
-0.46
-0.465
-0.465
-0.465
-0.465
-0.465
-0.465
-0.455
-0.445
-0.44
-0.44
-0.43
-0.425
-0.415
-0.375
-0.33
-0.31
-0.3
-0.3
-0.295
-0.29
-0.285
-0.285
-0.3
-0.345
-0.38
-0.405
-0.41
-0.41
-0.41
-0.43
-0.45
-0.46
-0.475
-0.495
-0.53
-0.55
-0.55
-0.545
-0.535
-0.51
-0.49
-0.475
-0.475
-0.48
-0.475
-0.425
-0.375
-0.345
-0.33
-0.325
-0.325
-0.33
-0.33
-0.33
-0.34
-0.34
-0.34
-0.33
-0.335
-0.36
-0.37
-0.36
-0.335
-0.33
-0.335
-0.33
-0.33
-0.32
-0.29
-0.255
-0.235
-0.23
-0.25
-0.285
-0.3
-0.3
-0.29
-0.285
-0.285
-0.29
-0.295
-0.3
-0.3
-0.3
-0.3
-0.305
-0.3
-0.285
-0.27
-0.25
-0.225
-0.215
-0.22
-0.255
-0.28
-0.295
-0.3
-0.305
-0.3
-0.275
-0.255
-0.255
-0.255
-0.235
-0.11
0.09
0.33
0.62
0.985
1.33
1.535
1.585
1.48
1.24
0.97
0.72
0.525
0.365
0.23
0.115
0.04
0
-0.03
-0.055
-0.09
-0.13
-0.165
-0.19
-0.2
-0.195
-0.2
-0.2
-0.2
-0.2
-0.2
-0.205
-0.205
-0.205
-0.21
-0.21
-0.21
-0.21
-0.215
-0.225
-0.225
-0.22
-0.2
-0.195
-0.195
-0.195
-0.195
-0.2
-0.21
-0.215
-0.24
-0.275
-0.3
-0.305
-0.305
-0.305
-0.315
-0.35
-0.37
-0.38
-0.38
-0.38
-0.39
-0.41
-0.435
-0.45
-0.475
-0.515
-0.56
-0.595
-0.62
-0.645
-0.675
-0.695
-0.7
-0.7
-0.69
-0.66
-0.635
-0.61
-0.595
-0.575
-0.545
-0.51
-0.47
-0.44
-0.415
-0.4
-0.39
-0.395
-0.395
-0.39
-0.36
-0.335
-0.325
-0.315
-0.29
-0.255
-0.215
-0.185
-0.165
-0.165
-0.165
-0.17
-0.17
-0.17
-0.175
-0.175
-0.17
-0.17
-0.175
-0.18
-0.18
-0.175
-0.18
-0.18
-0.18
-0.18
-0.19
-0.21
-0.23
-0.25
-0.26
-0.26
-0.255
-0.245
-0.215
-0.19
-0.18
-0.175
-0.175
-0.175
-0.175
-0.175
-0.18
-0.2
-0.205
-0.21
-0.205
-0.205
-0.205
-0.195
-0.185
-0.19
-0.205
-0.21
-0.215
-0.215
-0.23
-0.26
-0.295
-0.305
-0.31
-0.315
-0.305
-0.29
-0.29
-0.295
-0.305
-0.335
-0.375
-0.415
-0.45
-0.465
-0.425
-0.265
-0.03
0.27
0.66
1.03
1.24
1.26
1.085
0.8
0.495
0.225
0.02
-0.125
-0.235
-0.31
-0.36
-0.395
-0.415
-0.42
-0.42
-0.43
-0.45
-0.485
-0.505
-0.51
-0.52
-0.54
-0.55
-0.55
-0.555
-0.555
-0.55
-0.545
-0.545
-0.545
-0.54
-0.535
-0.54
-0.54
-0.52
-0.48
-0.44
-0.405
-0.385
-0.38
-0.38
-0.385
-0.37
-0.335
-0.325
-0.33
-0.355
-0.365
-0.36
-0.365
-0.365
-0.36
-0.355
-0.355
-0.35
-0.35
-0.35
-0.375
-0.395
-0.41
-0.435
-0.47
-0.495
-0.505
-0.515
-0.525
-0.535
-0.535
-0.52
-0.495
-0.475
-0.45
-0.42
-0.39
-0.365
-0.33
-0.285
-0.255
-0.245
-0.245
-0.245
-0.235
-0.18
-0.135
-0.11
-0.095
-0.085
-0.08
-0.08
-0.075
-0.075
-0.08
-0.085
-0.08
-0.06
-0.04
-0.025
-0.02
-0.02
-0.025
-0.025
-0.02
-0.01
-0.01
-0.015
-0.015
-0.02
-0.03
-0.045
-0.05
-0.05
-0.045
-0.04
-0.03
-0.025
-0.03
-0.06
-0.085
-0.09
-0.085
-0.1
-0.14
-0.175
-0.195
-0.195
-0.195
-0.185
-0.18
-0.175
-0.175
-0.175
-0.175
-0.125
-0.055
-0.015
-0.01
-0.025
-0.075
-0.105
-0.115
-0.12
-0.14
-0.175
-0.22
-0.285
-0.35
-0.395
-0.41
-0.41
-0.415
-0.46
-0.5
-0.51
-0.51
-0.51
-0.49
-0.465
-0.395
-0.265
-0.045
0.26
0.645
1.085
1.495
1.745
1.785
1.61
1.3
0.97
0.67
0.425
0.225
0.05
-0.07
-0.15
-0.21
-0.25
-0.28
-0.31
-0.335
-0.355
-0.36
-0.36
-0.36
-0.365
-0.375
-0.41
-0.44
-0.445
-0.4
-0.33
-0.295
-0.285
-0.285
-0.285
-0.29
-0.29
-0.29
-0.27
-0.24
-0.24
-0.25
-0.275
-0.295
-0.305
-0.31
-0.325
-0.345
-0.38
-0.4
-0.405
-0.4
-0.39
-0.385
-0.39
-0.42
-0.435
-0.44
-0.45
-0.465
-0.475
-0.485
-0.49
-0.49
-0.505
-0.54
-0.57
-0.58
-0.59
-0.625
-0.685
-0.74
-0.765
-0.77
-0.765
-0.73
-0.685
-0.65
-0.645
-0.645
-0.645
-0.63
-0.61
-0.59
-0.56
-0.515
-0.465
-0.43
-0.41
-0.4
-0.4
-0.38
-0.335
-0.29
-0.27
-0.27
-0.27
-0.27
-0.27
-0.25
-0.225
-0.215
-0.205
-0.21
-0.21
-0.2
-0.18
-0.17
-0.17
-0.17
-0.17
-0.17
-0.17
-0.165
-0.165
-0.165
-0.195
-0.22
-0.23
-0.235
-0.235
-0.235
-0.225
-0.205
-0.2
-0.2
-0.21
-0.215
-0.22
-0.225
-0.22
-0.215
-0.22
-0.225
-0.23
-0.23
-0.225
-0.215
-0.21
-0.215
-0.22
-0.225
-0.23
-0.23
-0.235
-0.255
-0.28
-0.305
-0.315
-0.32
-0.32
-0.32
-0.315
-0.325
-0.335
-0.335
-0.33
-0.325
-0.33
-0.34
-0.35
-0.35
-0.275
-0.095
0.18
0.545
0.985
1.39
1.615
1.65
1.48
1.2
0.865
0.53
0.25
0.055
-0.075
-0.17
-0.235
-0.26
-0.27
-0.29
-0.315
-0.34
-0.355
-0.36
-0.36
-0.365
-0.365
-0.37
-0.375
-0.38
-0.375
-0.345
-0.33
-0.335
-0.37
-0.385
-0.385
-0.385
-0.385
-0.39
-0.39
-0.39
-0.39
-0.38
-0.355
-0.335
-0.33
-0.325
-0.325
-0.32
-0.325
-0.325
-0.325
-0.325
-0.33
-0.335
-0.335
-0.33
-0.325
-0.32
-0.315
-0.315
-0.325
-0.34
-0.36
-0.37
-0.37
-0.37
-0.375
-0.37
-0.365
-0.355
-0.325
-0.295
-0.27
-0.255
-0.245
-0.23
-0.195
-0.165
-0.14
-0.13
-0.125
-0.135
-0.14
-0.12
-0.07
-0.045
-0.05
-0.075
-0.095
-0.1
-0.105
-0.12
-0.135
-0.14
-0.15
-0.155
-0.155
-0.155
-0.16
-0.165
-0.165
-0.16
-0.18
-0.245
-0.295
-0.305
-0.285
-0.24
-0.23
-0.23
-0.255
-0.265
-0.265
-0.265
-0.255
-0.255
-0.26
-0.26
-0.26
-0.26
-0.26
-0.26
-0.275
-0.285
-0.285
-0.275
-0.255
-0.25
-0.25
-0.25
-0.25
-0.24
-0.235
-0.22
-0.2
-0.19
-0.195
-0.2
-0.21
-0.215
-0.235
-0.255
-0.28
-0.31
-0.325
-0.335
-0.34
-0.36
-0.39
-0.41
-0.41
-0.41
-0.405
-0.44
-0.48
-0.495
-0.49
-0.455
-0.425
-0.415
-0.425
-0.43
-0.35
-0.145
0.105
0.4
0.76
1.115
1.36
1.42
1.295
1
0.655
0.34
0.105
-0.055
-0.165
-0.24
-0.33
-0.41
-0.465
-0.5
-0.525
-0.53
-0.53
-0.525
-0.52
-0.515
-0.51
-0.505
-0.5
-0.495
-0.485
-0.48
-0.47
-0.47
-0.45
-0.415
-0.385
-0.365
-0.36
-0.345
-0.31
-0.29
-0.285
-0.28
-0.27
-0.25
-0.235
-0.23
-0.225
-0.22
-0.21
-0.2
-0.195
-0.195
-0.195
-0.195
-0.185
-0.175
-0.18
-0.195
-0.225
-0.24
-0.25
-0.255
-0.255
-0.25
-0.26
-0.265
-0.27
-0.265
-0.26
-0.26
-0.26
-0.26
-0.225
-0.2
-0.19
-0.185
-0.18
-0.175
-0.145
-0.1
-0.075
-0.08
-0.105
-0.115
-0.105
-0.075
-0.06
-0.065
-0.085
-0.105
-0.11
-0.095
-0.06
-0.045
-0.05
-0.05
-0.05
-0.045
-0.03
-0.03
-0.03
-0.04
-0.05
-0.045
-0.02
-0.015
-0.015
-0.03
-0.035
-0.035
-0.03
-0.025
-0.02
-0.02
-0.04
-0.045
-0.045
-0.03
-0.03
-0.035
-0.045
-0.045
-0.045
-0.045
-0.05
-0.05
-0.055
-0.085
-0.095
-0.1
-0.1
-0.105
-0.115
-0.12
-0.11
-0.08
-0.075
-0.09
-0.155
-0.215
-0.23
-0.23
-0.225
-0.26
-0.35
-0.395
-0.395
-0.375
-0.365
-0.385
-0.425
-0.435
-0.43
-0.405
-0.385
-0.375
-0.38
-0.405
-0.435
-0.45
-0.43
-0.285
-0.03
0.34
0.84
1.37
1.775
1.945
1.905
1.59
1.15
0.705
0.355
0.115
-0.045
-0.145
-0.195
-0.245
-0.285
-0.3
-0.3
-0.305
-0.315
-0.33
-0.335
-0.33
-0.335
-0.34
-0.335
-0.325
-0.31
-0.305
-0.305
-0.3
-0.3
-0.29
-0.29
-0.29
-0.29
-0.285
-0.27
-0.25
-0.23
-0.225
-0.22
-0.22
-0.22
-0.22
-0.23
-0.235
-0.24
-0.245
-0.25
-0.245
-0.24
-0.24
-0.245
-0.245
-0.245
-0.245
-0.25
-0.255
-0.27
-0.29
-0.32
-0.345
-0.37
-0.395
-0.42
-0.435
-0.445
-0.45
-0.455
-0.45
-0.43
-0.415
-0.415
-0.415
-0.41
-0.39
-0.375
-0.375
-0.38
-0.385
-0.385
-0.37
-0.32
-0.275
-0.26
-0.26
-0.265
-0.255
-0.225
-0.21
-0.195
-0.18
-0.165
-0.16
-0.165
-0.165
-0.13
-0.08
-0.05
-0.035
-0.03
-0.025
-0.025
-0.025
-0.02
-0.015
-0.015
-0.015
-0.005
0.02
0.04
0.055
0.055
0.055
0.055
0.065
0.085
0.105
0.115
0.12
0.125
0.12
0.095
0.075
0.07
0.08
0.1
0.1
0.1
0.1
0.105
0.105
0.115
0.13
0.135
0.12
0.09
0.065
0.06
0.06
0.065
0.075
0.085
0.085
0.09
0.085
0.085
0.075
0.06
0.05
0.045
0.05
0.055
0.055
0.06
0.075
0.08
0.08
0.075
0.08
0.155
0.315
0.54
0.82
1.18
1.575
1.875
1.985
1.97
1.79
1.5
1.15
0.82
0.565
0.4
0.295
0.225
0.17
0.12
0.055
0
-0.01
-0.005
0.04
0.065
0.07
0.055
0.05
0.05
0.055
0.045
0
-0.01
-0.005
0.02
0.04
0.04
0.045
0.035
0.01
-0.02
-0.04
-0.05
-0.05
-0.03
-0.015
-0.01
-0.015
-0.02
-0.02
-0.015
-0.005
0
0.005
0.005
0
-0.015
-0.015
-0.015
-0.04
-0.055
-0.055
-0.045
-0.035
-0.035
-0.03
-0.03
-0.03
-0.03
-0.025
-0.005
0.01
0.01
-0.005
-0.02
-0.02
0.01
0.075
0.11
0.125
0.125
0.125
0.125
0.125
0.125
0.125
0.125
0.125
0.12
0.12
0.115
0.115
0.115
0.12
0.125
0.125
0.125
0.11
0.1
0.1
0.1
0.09
0.065
0.055
0.06
0.085
0.095
0.095
0.09
0.09
0.09
0.085
0.085
0.085
0.085
0.08
0.085
0.1
0.13
0.135
0.135
0.135
0.135
0.145
0.155
0.155
0.12
0.095
0.09
0.1
0.135
0.16
0.165
0.17
0.18
0.18
0.175
0.175
0.175
0.18
0.175
0.165
0.155
0.15
0.145
0.135
0.11
0.105
0.11
0.12
0.125
0.125
0.125
0.12
0.115
0.105
0.1
0.1
0.115
0.13
0.13
0.125
0.12
0.17
0.32
0.54
0.825
1.15
1.44
1.63
1.675
1.585
1.345
1.05
0.775
0.58
0.46
0.38
0.305
0.235
0.16
0.1
0.065
0.055
0.06
0.055
0.055
0.035
0.02
0.015
0.015
0.015
0.015
0.015
0.015
0.01
0.005
0.01
0.01
0.01
0.01
0.01
0
-0.01
-0.015
-0.01
-0.01
-0.01
-0.005
0
-0.005
-0.005
-0.01
-0.005
-0.02
-0.055
-0.075
-0.085
-0.09
-0.095
-0.095
-0.095
-0.09
-0.095
-0.095
-0.095
-0.095
-0.105
-0.11
-0.11
-0.1
-0.105
-0.105
-0.105
-0.105
-0.105
-0.11
-0.11
-0.12
-0.13
-0.135
-0.15
-0.18
-0.19
-0.195
-0.2
-0.21
-0.21
-0.205
-0.19
-0.185
-0.185
-0.2
-0.205
-0.205
-0.2
-0.2
-0.2
-0.2
-0.195
-0.195
-0.195
-0.195
-0.19
-0.18
-0.18
-0.19
-0.205
-0.2
-0.185
-0.15
-0.14
-0.135
-0.135
-0.115
-0.075
-0.05
-0.05
-0.06
-0.075
-0.07
-0.045
-0.03
-0.025
-0.025
-0.015
-0.015
-0.02
-0.02
-0.02
0
0.05
0.095
0.115
0.12
0.115
0.1
0.085
0.08
0.08
0.075
0.065
0.055
0.055
0.07
0.085
0.09
0.07
0.025
0.005
0.01
0.01
0.005
0.005
0.01
0.015
0.015
0.02
0.045
0.085
0.095
0.085
0.04
0.04
0.205
0.485
0.84
1.26
1.7
2.04
2.195
2.15
1.835
1.395
0.975
0.65
0.435
0.29
0.19
0.115
0.07
0.06
0.055
0.05
0.03
-0.005
-0.045
-0.055
-0.045
-0.02
-0.015
-0.01
-0.01
-0.03
-0.065
-0.08
-0.075
-0.065
-0.06
-0.055
-0.05
-0.055
-0.05
-0.035
-0.03
-0.045
-0.08
-0.095
-0.1
-0.1
-0.1
-0.1
-0.1
-0.095
-0.095
-0.085
-0.075
-0.06
-0.055
-0.055
-0.075
-0.11
-0.13
-0.14
-0.145
-0.145
-0.145
-0.145
-0.145
-0.13
-0.115
-0.105
-0.105
-0.105
-0.1
-0.085
-0.055
-0.04
-0.03
-0.04
-0.06
-0.06
-0.03
0.01
0.03
0.035
0.03
0.015
0
-0.005
-0.005
-0.01
-0.025
-0.03
-0.015
0.025
0.08
0.135
0.21
0.305
0.42
0.59
0.83
1.105
1.375
1.65
1.91
2.17
2.46
2.77
3.07
3.325
3.48
3.525
3.52
3.5
3.5
3.53
3.6
3.645
3.65
3.54
3.25
2.8
2.28
1.775
1.29
0.795
0.3
-0.125
-0.415
-0.565
-0.62
-0.65
-0.68
-0.71
-0.75
-0.8
-0.855
-0.9
-0.915
-0.915
-0.915
-0.92
-0.965
-1.03
-1.08
-1.1
-1.105
-1.13
-1.205
-1.28
-1.31
-1.31
-1.315
-1.35
-1.405
-1.445
-1.475
-1.53
-1.59
-1.635
-1.67
-1.69
-1.695
-1.7
-1.695
-1.69
-1.66
-1.635
-1.62
-1.61
-1.6
-1.57
-1.49
-1.38
-1.27
-1.17
-1.095
-1.025
-0.965
-0.89
-0.79
-0.67
-0.56
-0.49
-0.46
-0.445
-0.4
-0.325
-0.26
-0.235
-0.23
-0.21
-0.165
-0.135
-0.125
-0.12
-0.11
-0.1
-0.1
-0.1
-0.1
-0.085
-0.06
-0.05
-0.045
-0.04
-0.035
-0.035
-0.03
-0.025
-0.01
-0.01
-0.01
-0.015
-0.015
-0.025
-0.03
-0.02
0.02
0.035
0.04
0.04
0.025
0
-0.04
-0.06
-0.065
-0.06
-0.045
-0.015
0.005
0.01
0.01
-0.005
-0.005
-0.005
-0.01
-0.015
-0.035
-0.04
-0.045
-0.045
-0.045
-0.05
-0.06
-0.065
-0.065
-0.055
-0.04
-0.025
-0.005
0
0.01
0.01
0.01
0.015
0.02
0.015
0.01
0
-0.005
-0.02
-0.03
-0.04
-0.04
-0.035
-0.03
-0.02
-0.005
0
0
-0.02
-0.03
-0.025
-0.025
-0.015
-0.015
-0.01
-0.005
-0.005
0.005
0.02
0.025
0.025
0.025
0.025
0.025
0.025
0.015
0.01
0
-0.01
-0.015
-0.005
0.02
0.025
0.02
0.01
0.01
0.005
-0.01
-0.05
-0.075
-0.11
-0.15
-0.19
-0.225
-0.255
-0.27
-0.28
-0.29
-0.3
-0.315
-0.325
-0.33
-0.34
-0.35
-0.345
-0.32
-0.305
-0.3
-0.3
-0.27
-0.125
0.115
0.41
0.725
1.045
1.33
1.49
1.485
1.295
1.03
0.77
0.56
0.38
0.215
0.05
-0.085
-0.2
-0.28
-0.315
-0.325
-0.33
-0.34
-0.375
-0.415
-0.43
-0.435
-0.435
-0.43
-0.395
-0.365
-0.345
-0.345
-0.345
-0.34
-0.33
-0.315
-0.3
-0.295
-0.29
-0.295
-0.28
-0.24
-0.23
-0.23
-0.235
-0.24
-0.235
-0.235
-0.24
-0.25
-0.26
-0.265
-0.275
-0.275
-0.275
-0.27
-0.27
-0.27
-0.27
-0.26
-0.25
-0.24
-0.235
-0.23
-0.23
-0.22
-0.2
-0.19
-0.185
-0.18
-0.18
-0.175
-0.175
-0.175
-0.17
-0.165
-0.155
-0.155
-0.155
-0.15
-0.145
-0.145
-0.11
-0.065
-0.025
-0.01
-0.01
-0.03
-0.06
-0.06
-0.055
-0.045
-0.045
-0.075
-0.1
-0.11
-0.105
-0.105
-0.1
-0.1
-0.095
-0.09
-0.09
-0.09
-0.09
-0.085
-0.09
-0.095
-0.1
-0.1
-0.09
-0.085
-0.085
-0.06
-0.02
-0.015
-0.02
-0.04
-0.04
-0.01
0.02
0.025
0.01
-0.005
-0.005
0.035
0.065
0.075
0.075
0.075
0.075
0.06
0.05
0.035
0.01
-0.01
-0.015
-0.005
0.02
0.03
0.02
-0.015
-0.04
-0.045
-0.05
-0.055
-0.05
-0.04
-0.035
-0.035
-0.045
-0.07
-0.085
-0.09
-0.085
-0.08
-0.075
-0.065
0.055
0.29
0.595
0.985
1.46
1.92
2.2
2.235
1.97
1.505
0.99
0.54
0.195
-0.045
-0.195
-0.28
-0.32
-0.345
-0.37
-0.415
-0.47
-0.495
-0.495
-0.455
-0.41
-0.385
-0.37
-0.355
-0.335
-0.315
-0.295
-0.275
-0.275
-0.27
-0.27
-0.255
-0.225
-0.195
-0.18
-0.17
-0.17
-0.175
-0.175
-0.17
-0.165
-0.155
-0.155
-0.155
-0.16
-0.165
-0.165
-0.165
-0.17
-0.18
-0.185
-0.185
-0.19
-0.225
-0.275
-0.31
-0.32
-0.33
-0.335
-0.35
-0.375
-0.4
-0.41
-0.4
-0.35
-0.3
-0.285
-0.28
-0.27
-0.22
-0.165
-0.125
-0.115
-0.11
-0.11
-0.095
-0.045
-0.01
0
0.005
0.01
0.015
0.02
0.015
0.015
0.015
0.015
0.015
0.015
0.01
0.01
0
-0.005
-0.005
0
-0.005
-0.035
-0.07
-0.085
-0.085
-0.09
-0.115
-0.145
-0.16
-0.16
-0.155
-0.145
-0.13
-0.125
-0.115
-0.105
-0.1
-0.105
-0.12
-0.125
-0.125
-0.12
-0.115
-0.1
-0.085
-0.075
-0.07
-0.05
-0.025
-0.02
-0.02
-0.025
-0.025
-0.02
-0.02
-0.025
-0.025
-0.015
0
0.005
0.005
0.01
0.01
0.005
0
-0.02
-0.065
-0.095
-0.1
-0.1
-0.095
-0.095
-0.095
-0.08
-0.05
-0.045
-0.065
-0.08
-0.01
0.22
0.515
0.835
1.24
1.715
2.125
2.33
2.335
2.09
1.68
1.19
0.76
0.455
0.265
0.145
0.065
0.01
-0.035
-0.075
-0.095
-0.1
-0.105
-0.11
-0.11
-0.11
-0.125
-0.14
-0.145
-0.14
-0.14
-0.145
-0.165
-0.175
-0.17
-0.165
-0.16
-0.155
-0.15
-0.15
-0.145
-0.14
-0.135
-0.135
-0.14
-0.145
-0.145
-0.15
-0.15
-0.15
-0.145
-0.15
-0.15
-0.15
-0.15
-0.155
-0.155
-0.145
-0.13
-0.12
-0.135
-0.16
-0.165
-0.15
-0.11
-0.085
-0.08
-0.075
-0.085
-0.09
-0.09
-0.09
-0.09
-0.09
-0.085
-0.07
-0.06
-0.055
-0.055
-0.05
-0.04
-0.04
-0.04
-0.045
-0.045
-0.05
-0.05
-0.045
-0.045
-0.065
-0.08
-0.075
-0.045
-0.01
0
0
-0.02
-0.06
-0.07
-0.05
0
0.01
0
-0.04
-0.05
-0.05
-0.04
-0.035
-0.025
-0.02
-0.02
-0.025
-0.025
-0.015
-0.015
-0.015
-0.015
-0.01
0
0.01
0.015
0.02
0.02
0.02
0.015
0.025
0.03
0.03
0.03
0.03
0.03
0.03
0.02
0.01
0
0
-0.005
-0.005
-0.005
-0.01
-0.01
-0.015
-0.01
-0.015
-0.03
-0.05
-0.06
-0.06
-0.065
-0.07
-0.065
-0.04
-0.025
-0.04
-0.08
-0.08
-0.06
0.01
0.11
0.27
0.53
0.9
1.315
1.655
1.825
1.855
1.75
1.505
1.165
0.815
0.52
0.315
0.185
0.09
0.02
-0.03
-0.07
-0.105
-0.13
-0.14
-0.14
-0.14
-0.145
-0.165
-0.2
-0.22
-0.225
-0.23
-0.23
-0.225
-0.225
-0.225
-0.225
-0.215
-0.2
-0.2
-0.2
-0.215
-0.225
-0.225
-0.225
-0.225
-0.225
-0.225
-0.225
-0.225
-0.235
-0.245
-0.255
-0.25
-0.235
-0.22
-0.205
-0.2
-0.195
-0.205
-0.215
-0.215
-0.215
-0.215
-0.205
-0.17
-0.145
-0.14
-0.14
-0.14
-0.135
-0.12
-0.11
-0.1
-0.09
-0.085
-0.085
-0.09
-0.09
-0.08
-0.055
-0.035
-0.02
-0.015
-0.02
-0.035
-0.035
-0.03
-0.03
-0.04
-0.06
-0.065
-0.065
-0.05
-0.04
-0.035
-0.035
-0.05
-0.07
-0.095
-0.1
-0.105
-0.105
-0.105
-0.1
-0.105
-0.105
-0.105
-0.105
-0.105
-0.105
-0.105
-0.105
-0.11
-0.11
-0.105
-0.105
-0.105
-0.105
-0.105
-0.095
-0.065
-0.05
-0.05
-0.055
-0.065
-0.075
-0.075
-0.07
-0.05
-0.04
-0.035
-0.045
-0.065
-0.07
-0.07
-0.06
-0.055
-0.06
-0.075
-0.085
-0.095
-0.105
-0.14
-0.17
-0.175
-0.17
-0.175
-0.175
-0.175
-0.17
-0.17
-0.175
-0.185
-0.19
-0.205
-0.21
-0.125
0.065
0.33
0.68
1.105
1.51
1.78
1.845
1.715
1.395
0.99
0.6
0.315
0.14
0.03
-0.055
-0.125
-0.175
-0.19
-0.195
-0.2
-0.2
-0.21
-0.245
-0.28
-0.295
-0.295
-0.295
-0.315
-0.34
-0.35
-0.345
-0.33
-0.305
-0.295
-0.29
-0.295
-0.295
-0.295
-0.29
-0.29
-0.295
-0.31
-0.325
-0.33
-0.33
-0.32
-0.305
-0.285
-0.275
-0.27
-0.27
-0.265
-0.27
-0.27
-0.26
-0.255
-0.25
-0.25
-0.24
-0.215
-0.185
-0.16
-0.15
-0.15
-0.15
-0.155
-0.15
-0.135
-0.11
-0.105
-0.105
-0.105
-0.1
-0.105
-0.1
-0.09
-0.07
-0.05
-0.045
-0.045
-0.045
-0.045
-0.05
-0.05
-0.045
-0.045
-0.05
-0.06
-0.07
-0.075
-0.08
-0.07
-0.06
-0.055
-0.06
-0.07
-0.07
-0.065
-0.07
-0.09
-0.1
-0.095
-0.06
-0.05
-0.055
-0.085
-0.1
-0.1
-0.09
-0.085
-0.075
-0.075
-0.065
-0.065
-0.06
-0.06
-0.065
-0.06
-0.045
-0.04
-0.035
-0.03
-0.025
-0.015
-0.005
0
-0.015
-0.05
-0.07
-0.07
-0.06
-0.03
-0.02
-0.02
-0.02
-0.03
-0.035
-0.04
-0.05
-0.07
-0.09
-0.1
-0.095
-0.09
-0.095
-0.095
-0.09
-0.06
-0.02
-0.015
-0.03
-0.07
-0.07
0.025
0.235
0.51
0.865
1.31
1.76
2.065
2.145
2.015
1.68
1.255
0.85
0.515
0.27
0.105
0
-0.085
-0.14
-0.175
-0.19
-0.2
-0.21
-0.23
-0.245
-0.245
-0.24
-0.23
-0.225
-0.225
-0.235
-0.25
-0.25
-0.25
-0.25
-0.25
-0.24
-0.235
-0.23
-0.235
-0.23
-0.23
-0.225
-0.22
-0.21
-0.205
-0.205
-0.22
-0.23
-0.23
-0.23
-0.225
-0.215
-0.205
-0.205
-0.205
-0.205
-0.195
-0.18
-0.18
-0.185
-0.195
-0.21
-0.215
-0.22
-0.215
-0.19
-0.175
-0.17
-0.17
-0.17
-0.16
-0.145
-0.135
-0.125
-0.12
-0.11
-0.09
-0.07
-0.05
-0.05
-0.05
-0.05
-0.05
-0.05
-0.05
-0.06
-0.075
-0.09
-0.105
-0.11
-0.115
-0.115
-0.125
-0.14
-0.145
-0.145
-0.155
-0.155
-0.15
-0.14
-0.145
-0.165
-0.175
-0.175
-0.165
-0.15
-0.145
-0.145
-0.14
-0.14
-0.13
-0.11
-0.095
-0.095
-0.095
-0.085
-0.06
-0.055
-0.075
-0.11
-0.12
-0.105
-0.075
-0.065
-0.06
-0.06
-0.03
0.035
0.095
0.125
0.12
0.005
-0.23
-0.57
-0.885
-1.02
-0.995
-0.85
-0.755
-0.715
-0.68
-0.625
-0.545
-0.45
-0.35
-0.26
-0.195
-0.14
-0.1
-0.075
-0.065
-0.06
-0.05
-0.035
-0.01
0
0.005
0.01
0.01
0.005
0
0.005
0.035
0.07
0.1
0.115
0.125
0.125
0.125
0.125
0.125
0.13
0.13
0.125
0.13
0.17
0.2
0.21
0.205
0.175
0.16
0.155
0.185
0.205
0.2
0.17
0.15
0.15
0.16
0.165
0.165
0.17
0.175
0.175
0.17
0.155
0.15
0.14
0.115
0.09
0.08
0.075
0.075
0.075
0.07
0.05
0.03
0.025
0.02
0.01
-0.015
-0.045
-0.055
-0.055
-0.06
-0.065
-0.075
-0.07
-0.07
-0.065
-0.06
-0.055
-0.06
-0.065
-0.07
-0.075
-0.09
-0.095
-0.095
-0.095
-0.105
-0.11
-0.105
-0.085
-0.075
-0.09
-0.115
-0.12
-0.115
-0.105
-0.1
-0.105
-0.125
-0.145
-0.155
-0.155
-0.145
-0.145
-0.145
-0.145
-0.14
-0.14
-0.14
-0.155
-0.165
-0.165
-0.155
-0.14
-0.14
-0.14
-0.15
-0.15
-0.15
-0.145
-0.16
-0.18
-0.19
-0.19
-0.19
-0.19
-0.18
-0.175
-0.175
-0.185
-0.19
-0.19
-0.18
-0.17
-0.165
-0.16
-0.155
-0.15
-0.145
-0.145
-0.14
-0.135
-0.125
-0.1
-0.09
-0.09
-0.09
-0.095
-0.095
-0.1
-0.11
-0.11
-0.11
-0.11
-0.115
-0.12
-0.125
-0.125
-0.135
-0.155
-0.16
-0.165
-0.165
-0.17
-0.17
-0.165
-0.165
-0.14
-0.035
0.14
0.37
0.685
1.07
1.4
1.56
1.555
1.41
1.245
1.09
0.9
0.69
0.485
0.31
0.165
0.07
0.02
-0.005
-0.025
-0.04
-0.065
-0.085
-0.11
-0.13
-0.14
-0.155
-0.17
-0.175
-0.18
-0.185
-0.185
-0.185
-0.175
-0.155
-0.15
-0.155
-0.19
-0.21
-0.205
-0.21
-0.21
-0.23
-0.25
-0.26
-0.265
-0.26
-0.245
-0.24
-0.24
-0.26
-0.29
-0.305
-0.305
-0.31
-0.315
-0.33
-0.335
-0.335
-0.32
-0.295
-0.265
-0.235
-0.225
-0.225
-0.23
-0.23
-0.215
-0.2
-0.2
-0.215
-0.225
-0.225
-0.205
-0.175
-0.16
-0.145
-0.135
-0.13
-0.13
-0.13
-0.125
-0.13
-0.14
-0.145
-0.15
-0.15
-0.155
-0.155
-0.15
-0.15
-0.145
-0.135
-0.13
-0.13
-0.135
-0.14
-0.145
-0.145
-0.15
-0.155
-0.155
-0.15
-0.15
-0.14
-0.13
-0.125
-0.125
-0.14
-0.15
-0.15
-0.16
-0.165
-0.175
-0.18
-0.175
-0.15
-0.125
-0.115
-0.11
-0.11
-0.11
-0.095
-0.07
-0.05
-0.025
-0.01
-0.005
-0.015
-0.025
-0.025
-0.015
-0.005
0
0
0.005
0.005
0.005
0
-0.05
-0.12
-0.16
-0.165
-0.165
-0.16
-0.15
-0.15
-0.15
-0.145
-0.145
-0.145
-0.135
-0.13
-0.145
-0.14
0
0.245
0.545
0.915
1.355
1.765
2.03
2.105
1.955
1.585
1.12
0.695
0.4
0.22
0.105
0.02
-0.045
-0.08
-0.09
-0.1
-0.115
-0.115
-0.11
-0.11
-0.115
-0.14
-0.175
-0.195
-0.2
-0.205
-0.205
-0.2
-0.205
-0.205
-0.2
-0.19
-0.19
-0.195
-0.2
-0.195
-0.195
-0.2
-0.2
-0.195
-0.195
-0.185
-0.17
-0.155
-0.15
-0.155
-0.175
-0.21
-0.22
-0.215
-0.2
-0.195
-0.2
-0.22
-0.235
-0.235
-0.225
-0.21
-0.195
-0.19
-0.18
-0.18
-0.18
-0.175
-0.17
-0.17
-0.165
-0.145
-0.13
-0.12
-0.12
-0.11
-0.08
-0.05
-0.05
-0.05
-0.055
-0.055
-0.06
-0.06
-0.055
-0.06
-0.085
-0.105
-0.11
-0.1
-0.075
-0.07
-0.07
-0.085
-0.09
-0.095
-0.1
-0.105
-0.125
-0.145
-0.155
-0.155
-0.155
-0.155
-0.155
-0.155
-0.15
-0.155
-0.155
-0.155
-0.155
-0.15
-0.14
-0.135
-0.135
-0.13
-0.13
-0.105
-0.09
-0.085
-0.095
-0.1
-0.1
-0.085
-0.06
-0.025
0
0.01
0.01
-0.005
-0.015
-0.015
-0.015
-0.015
-0.04
-0.065
-0.07
-0.075
-0.07
-0.065
-0.075
-0.12
-0.16
-0.18
-0.19
-0.2
-0.2
-0.185
-0.17
-0.17
-0.17
-0.17
-0.17
-0.18
-0.185
-0.11
0.105
0.415
0.795
1.23
1.65
1.95
2.045
1.96
1.69
1.32
0.92
0.575
0.325
0.17
0.06
-0.02
-0.07
-0.085
-0.085
-0.09
-0.095
-0.11
-0.125
-0.13
-0.135
-0.135
-0.135
-0.155
-0.18
-0.19
-0.195
-0.2
-0.2
-0.19
-0.185
-0.185
-0.2
-0.215
-0.22
-0.225
-0.225
-0.225
-0.225
-0.225
-0.23
-0.23
-0.23
-0.225
-0.235
-0.245
-0.24
-0.235
-0.23
-0.235
-0.235
-0.23
-0.235
-0.24
-0.24
-0.235
-0.215
-0.21
-0.21
-0.21
-0.21
-0.225
-0.235
-0.235
-0.23
-0.21
-0.2
-0.2
-0.19
-0.18
-0.155
-0.125
-0.1
-0.1
-0.1
-0.1
-0.1
-0.1
-0.1
-0.11
-0.135
-0.15
-0.16
-0.16
-0.155
-0.135
-0.13
-0.135
-0.14
-0.155
-0.18
-0.185
-0.185
-0.18
-0.19
-0.195
-0.2
-0.195
-0.195
-0.19
-0.18
-0.17
-0.165
-0.165
-0.165
-0.17
-0.19
-0.2
-0.2
-0.2
-0.19
-0.185
-0.185
-0.17
-0.16
-0.16
-0.16
-0.155
-0.135
-0.12
-0.115
-0.11
-0.105
-0.095
-0.095
-0.095
-0.095
-0.095
-0.105
-0.11
-0.11
-0.11
-0.11
-0.115
-0.11
-0.11
-0.11
-0.12
-0.135
-0.135
-0.14
-0.145
-0.145
-0.145
-0.145
-0.145
-0.14
-0.14
-0.14
-0.145
-0.135
-0.015
0.17
0.43
0.765
1.125
1.4
1.5
1.475
1.295
1.045
0.76
0.505
0.31
0.165
0.05
-0.035
-0.09
-0.125
-0.15
-0.165
-0.17
-0.17
-0.175
-0.185
-0.195
-0.195
-0.205
-0.23
-0.245
-0.245
-0.225
-0.21
-0.21
-0.21
-0.205
-0.205
-0.205
-0.215
-0.225
-0.23
-0.23
-0.23
-0.225
-0.225
-0.235
-0.245
-0.245
-0.245
-0.25
-0.255
-0.255
-0.25
-0.25
-0.255
-0.25
-0.25
-0.255
-0.26
-0.26
-0.26
-0.235
-0.205
-0.185
-0.18
-0.18
-0.195
-0.2
-0.19
-0.18
-0.18
-0.18
-0.165
-0.14
-0.115
-0.095
-0.08
-0.07
-0.07
-0.07
-0.07
-0.065
-0.065
-0.085
-0.11
-0.115
-0.115
-0.12
-0.12
-0.12
-0.12
-0.13
-0.135
-0.13
-0.125
-0.125
-0.135
-0.145
-0.15
-0.15
-0.155
-0.155
-0.135
-0.115
-0.11
-0.11
-0.105
-0.09
-0.075
-0.075
-0.07
-0.07
-0.07
-0.075
-0.065
-0.055
-0.055
-0.07
-0.13
-0.18
-0.195
-0.19
-0.17
-0.15
-0.135
-0.11
-0.085
-0.07
-0.065
-0.08
-0.15
-0.27
-0.475
-0.75
-0.945
-0.985
-0.885
-0.76
-0.72
-0.72
-0.705
-0.61
-0.46
-0.31
-0.2
-0.135
-0.1
-0.08
-0.065
-0.05
-0.04
-0.04
-0.04
-0.035
-0.035
-0.025
0
0.01
0.02
0.03
0.04
0.05
0.055
0.055
0.055
0.055
0.055
0.055
0.055
0.055
0.06
0.055
0.055
0.06
0.08
0.085
0.085
0.09
0.12
0.14
0.14
0.14
0.14
0.14
0.14
0.135
0.14
0.17
0.205
0.205
0.195
0.175
0.17
0.165
0.165
0.17
0.165
0.165
0.15
0.12
0.085
0.07
0.065
0.07
0.07
0.05
0.02
-0.005
-0.03
-0.045
-0.05
-0.045
-0.045
-0.045
-0.045
-0.035
-0.03
-0.025
-0.02
-0.02
-0.025
-0.035
-0.04
-0.045
-0.05
-0.065
-0.07
-0.07
-0.05
-0.035
-0.035
-0.03
-0.04
-0.05
-0.055
-0.055
-0.065
-0.07
-0.07
-0.05
-0.045
-0.045
-0.065
-0.07
-0.07
-0.06
-0.06
-0.065
-0.065
-0.065
-0.06
-0.055
-0.055
-0.055
-0.07
-0.09
-0.1
-0.1
-0.09
-0.075
-0.07
-0.07
-0.065
-0.07
-0.09
-0.105
-0.105
-0.1
-0.085
-0.08
-0.07
-0.065
-0.055
-0.05
-0.045
-0.04
-0.045
-0.045
-0.035
0
0.015
0.015
0.015
0.015
0.01
0.005
0.005
-0.01
-0.025
-0.03
-0.03
-0.025
-0.03
-0.03
-0.045
-0.07
-0.08
-0.085
-0.08
-0.075
-0.07
-0.07
-0.075
-0.085
-0.1
-0.115
-0.125
-0.12
-0.095
0.01
0.195
0.44
0.725
1.075
1.46
1.75
1.85
1.79
1.585
1.32
1.015
0.7
0.415
0.19
0.05
-0.02
-0.06
-0.09
-0.11
-0.115
-0.13
-0.17
-0.22
-0.255
-0.28
-0.305
-0.315
-0.32
-0.325
-0.34
-0.355
-0.36
-0.37
-0.385
-0.39
-0.385
-0.365
-0.355
-0.35
-0.35
-0.345
-0.345
-0.335
-0.315
-0.305
-0.305
-0.305
-0.295
-0.285
-0.285
-0.31
-0.33
-0.33
-0.325
-0.31
-0.31
-0.305
-0.31
-0.315
-0.315
-0.3
-0.285
-0.285
-0.3
-0.32
-0.33
-0.335
-0.335
-0.335
-0.33
-0.33
-0.335
-0.33
-0.31
-0.275
-0.255
-0.24
-0.22
-0.2
-0.195
-0.2
-0.21
-0.215
-0.22
-0.22
-0.21
-0.2
-0.195
-0.195
-0.195
-0.195
-0.2
-0.2
-0.2
-0.205
-0.235
-0.27
-0.29
-0.305
-0.32
-0.34
-0.345
-0.31
-0.25
-0.225
-0.22
-0.22
-0.22
-0.225
-0.23
-0.225
-0.22
-0.225
-0.245
-0.26
-0.26
-0.26
-0.26
-0.26
-0.255
-0.245
-0.225
-0.2
-0.165
-0.13
-0.1
-0.075
-0.065
-0.06
-0.06
-0.065
-0.065
-0.055
-0.05
-0.05
-0.05
-0.05
-0.06
-0.07
-0.09
-0.115
-0.135
-0.15
-0.15
-0.14
-0.105
-0.09
-0.09
-0.095
-0.1
-0.1
-0.095
-0.08
-0.075
-0.08
0.01
0.225
0.505
0.825
1.17
1.435
1.54
1.515
1.345
1.12
0.89
0.655
0.43
0.245
0.1
0.005
-0.04
-0.065
-0.08
-0.09
-0.1
-0.105
-0.11
-0.115
-0.115
-0.12
-0.125
-0.145
-0.185
-0.205
-0.21
-0.205
-0.2
-0.195
-0.195
-0.195
-0.19
-0.185
-0.17
-0.16
-0.16
-0.185
-0.22
-0.23
-0.215
-0.175
-0.155
-0.155
-0.16
-0.17
-0.18
-0.18
-0.175
-0.165
-0.165
-0.17
-0.18
-0.18
-0.185
-0.17
-0.13
-0.09
-0.065
-0.035
0
0.025
0.03
0.035
0.03
0.035
0.04
0.05
0.045
0.01
-0.01
-0.03
-0.055
-0.095
-0.135
-0.16
-0.175
-0.18
-0.175
-0.175
-0.185
-0.205
-0.205
-0.165
-0.125
-0.115
-0.125
-0.16
-0.185
-0.19
-0.19
-0.19
-0.19
-0.2
-0.215
-0.22
-0.225
-0.21
-0.18
-0.17
-0.175
-0.195
-0.2
-0.2
-0.215
-0.225
-0.23
-0.215
-0.205
-0.205
-0.205
-0.19
-0.17
-0.16
-0.155
-0.15
-0.145
-0.145
-0.155
-0.16
-0.155
-0.16
-0.17
-0.2
-0.22
-0.235
-0.25
-0.265
-0.275
-0.28
-0.28
-0.28
-0.28
-0.275
-0.275
-0.28
-0.28
-0.28
-0.285
-0.29
-0.285
-0.27
-0.245
-0.225
-0.215
-0.21
-0.21
-0.21
-0.21
-0.205
-0.185
-0.05
0.215
0.57
1.02
1.53
1.97
2.185
2.145
1.835
1.43
1.01
0.65
0.38
0.18
0.05
-0.01
-0.045
-0.06
-0.1
-0.155
-0.2
-0.21
-0.2
-0.185
-0.18
-0.19
-0.225
-0.24
-0.245
-0.25
-0.255
-0.255
-0.25
-0.25
-0.25
-0.255
-0.255
-0.255
-0.265
-0.275
-0.285
-0.29
-0.29
-0.285
-0.285
-0.28
-0.28
-0.28
-0.275
-0.265
-0.265
-0.27
-0.265
-0.265
-0.265
-0.265
-0.26
-0.255
-0.265
-0.29
-0.305
-0.32
-0.37
-0.46
-0.525
-0.54
-0.54
-0.54
-0.565
-0.64
-0.69
-0.72
-0.78
-0.875
-0.935
-0.935
-0.825
-0.685
-0.595
-0.555
-0.525
-0.5
-0.49
-0.49
-0.5
-0.52
-0.535
-0.545
-0.55
-0.55
-0.545
-0.53
-0.52
-0.51
-0.48
-0.445
-0.44
-0.44
-0.44
-0.415
-0.37
-0.325
-0.29
-0.255
-0.225
-0.205
-0.2
-0.195
-0.195
-0.2
-0.2
-0.205
-0.21
-0.21
-0.215
-0.215
-0.21
-0.23
-0.245
-0.255
-0.26
-0.28
-0.31
-0.32
-0.31
-0.29
-0.28
-0.275
-0.275
-0.275
-0.275
-0.25
-0.215
-0.195
-0.195
-0.215
-0.235
-0.235
-0.24
-0.24
-0.255
-0.28
-0.3
-0.305
-0.29
-0.255
-0.24
-0.24
-0.245
-0.245
-0.245
-0.25
-0.25
-0.245
-0.135
0.085
0.385
0.76
1.205
1.59
1.78
1.775
1.57
1.25
0.885
0.545
0.3
0.13
0.01
-0.085
-0.14
-0.16
-0.165
-0.17
-0.18
-0.205
-0.23
-0.24
-0.245
-0.245
-0.255
-0.275
-0.28
-0.28
-0.275
-0.25
-0.235
-0.23
-0.24
-0.245
-0.25
-0.24
-0.235
-0.235
-0.235
-0.24
-0.24
-0.245
-0.25
-0.25
-0.25
-0.25
-0.245
-0.24
-0.235
-0.235
-0.22
-0.2
-0.195
-0.21
-0.23
-0.235
-0.23
-0.22
-0.22
-0.22
-0.215
-0.215
-0.215
-0.225
-0.235
-0.235
-0.24
-0.24
-0.225
-0.185
-0.145
-0.12
-0.115
-0.11
-0.115
-0.11
-0.08
-0.05
-0.045
-0.06
-0.1
-0.12
-0.13
-0.13
-0.13
-0.125
-0.12
-0.125
-0.125
-0.12
-0.1
-0.095
-0.095
-0.095
-0.1
-0.125
-0.145
-0.15
-0.145
-0.13
-0.125
-0.13
-0.145
-0.16
-0.16
-0.16
-0.15
-0.14
-0.14
-0.16
-0.19
-0.2
-0.205
-0.205
-0.2
-0.195
-0.195
-0.195
-0.195
-0.19
-0.19
-0.19
-0.19
-0.14
-0.055
-0.005
0
-0.03
-0.065
-0.08
-0.08
-0.08
-0.075
-0.08
-0.085
-0.09
-0.115
-0.145
-0.18
-0.195
-0.19
-0.195
-0.195
-0.185
-0.17
-0.16
-0.16
-0.19
-0.21
-0.205
-0.125
0.055
0.33
0.7
1.2
1.775
2.255
2.475
2.42
2.055
1.545
1.01
0.565
0.265
0.09
-0.015
-0.095
-0.15
-0.185
-0.2
-0.21
-0.235
-0.27
-0.29
-0.295
-0.3
-0.3
-0.295
-0.29
-0.295
-0.31
-0.31
-0.305
-0.305
-0.295
-0.29
-0.295
-0.33
-0.36
-0.37
-0.365
-0.36
-0.36
-0.365
-0.37
-0.385
-0.395
-0.39
-0.355
-0.32
-0.31
-0.305
-0.3
-0.275
-0.265
-0.265
-0.265
-0.275
-0.285
-0.29
-0.29
-0.265
-0.235
-0.215
-0.21
-0.21
-0.21
-0.21
-0.21
-0.205
-0.2
-0.205
-0.205
-0.205
-0.19
-0.18
-0.17
-0.155
-0.14
-0.14
-0.14
-0.145
-0.155
-0.17
-0.195
-0.22
-0.245
-0.26
-0.265
-0.255
-0.215
-0.195
-0.195
-0.2
-0.195
-0.195
-0.195
-0.2
-0.205
-0.2
-0.2
-0.21
-0.235
-0.245
-0.245
-0.245
-0.235
-0.23
-0.215
-0.205
-0.19
-0.18
-0.165
-0.155
-0.14
-0.13
-0.12
-0.105
-0.08
-0.05
-0.02
0.005
0.015
0.01
0.005
0
0
-0.025
-0.05
-0.06
-0.07
-0.075
-0.08
-0.085
-0.09
-0.09
-0.09
-0.095
-0.105
-0.115
-0.12
-0.13
-0.16
-0.19
-0.205
-0.205
-0.195
-0.18
-0.17
-0.17
-0.185
-0.205
-0.21
-0.145
0.03
0.295
0.66
1.14
1.675
2.115
2.335
2.325
2.03
1.555
1.03
0.585
0.29
0.11
0
-0.095
-0.18
-0.24
-0.27
-0.28
-0.29
-0.305
-0.33
-0.34
-0.34
-0.34
-0.35
-0.37
-0.38
-0.375
-0.36
-0.345
-0.34
-0.335
-0.335
-0.32
-0.285
-0.26
-0.255
-0.265
-0.285
-0.29
-0.29
-0.29
-0.3
-0.315
-0.32
-0.325
-0.32
-0.305
-0.285
-0.285
-0.29
-0.295
-0.295
-0.295
-0.3
-0.305
-0.315
-0.335
-0.35
-0.35
-0.35
-0.335
-0.33
-0.335
-0.335
-0.34
-0.345
-0.34
-0.315
-0.3
-0.295
-0.295
-0.29
-0.255
-0.225
-0.215
-0.23
-0.275
-0.305
-0.315
-0.315
-0.315
-0.31
-0.31
-0.31
-0.31
-0.305
-0.31
-0.315
-0.315
-0.305
-0.3
-0.29
-0.285
-0.28
-0.275
-0.275
-0.27
-0.265
-0.26
-0.26
-0.255
-0.235
-0.215
-0.21
-0.205
-0.205
-0.195
-0.2
-0.205
-0.195
-0.18
-0.175
-0.175
-0.175
-0.16
-0.14
-0.125
-0.125
-0.135
-0.14
-0.135
-0.095
-0.065
-0.055
-0.055
-0.06
-0.06
-0.06
-0.065
-0.075
-0.095
-0.115
-0.135
-0.14
-0.14
-0.14
-0.14
-0.145
-0.175
-0.205
-0.22
-0.22
-0.195
-0.165
-0.15
-0.14
-0.14
-0.135
-0.125
-0.12
-0.11
-0.035
0.135
0.365
0.655
1
1.33
1.545
1.58
1.375
1.025
0.68
0.415
0.235
0.105
0.02
-0.045
-0.075
-0.09
-0.12
-0.19
-0.245
-0.26
-0.25
-0.25
-0.245
-0.25
-0.245
-0.25
-0.26
-0.265
-0.265
-0.265
-0.27
-0.27
-0.29
-0.315
-0.325
-0.325
-0.305
-0.28
-0.275
-0.27
-0.265
-0.26
-0.26
-0.265
-0.275
-0.285
-0.295
-0.285
-0.26
-0.25
-0.25
-0.255
-0.255
-0.255
-0.25
-0.26
-0.275
-0.285
-0.28
-0.27
-0.255
-0.245
-0.24
-0.24
-0.235
-0.21
-0.195
-0.195
-0.195
-0.195
-0.165
-0.14
-0.14
-0.14
-0.14
-0.14
-0.14
-0.135
-0.115
-0.095
-0.095
-0.1
-0.105
-0.105
-0.105
-0.115
-0.14
-0.15
-0.155
-0.16
-0.155
-0.14
-0.135
-0.135
-0.155
-0.185
-0.195
-0.2
-0.195
-0.18
-0.165
-0.165
-0.175
-0.19
-0.185
-0.145
-0.105
-0.09
-0.1
-0.135
-0.15
-0.15
-0.145
-0.145
-0.145
-0.145
-0.14
-0.125
-0.115
-0.115
-0.11
-0.1
-0.06
-0.015
0.01
0.015
-0.005
-0.02
-0.02
-0.005
0
0
0
-0.02
-0.07
-0.105
-0.11
-0.11
-0.11
-0.145
-0.19
-0.2
-0.185
-0.13
-0.06
0
0.03
0.04
0.04
0.03
0.005
-0.03
-0.055
-0.05
0.1
0.385
0.765
1.21
1.655
1.96
2.045
1.855
1.46
1.01
0.62
0.34
0.17
0.045
-0.075
-0.175
-0.25
-0.275
-0.28
-0.25
-0.22
-0.215
-0.26
-0.31
-0.32
-0.31
-0.29
-0.285
-0.29
-0.285
-0.225
-0.205
-0.24
-0.255
-0.12
-0.01
-0.115
-0.43
-0.62
-0.565
-0.29
-0.07
-0.005
-0.04
-0.165
-0.28
-0.315
-0.29
-0.19
-0.13
-0.13
-0.19
-0.24
-0.25
-0.225
-0.165
-0.13
-0.125
-0.125
-0.155
-0.18
-0.18
-0.15
-0.145
-0.225
-0.33
-0.355
-0.285
-0.14
-0.065
-0.07
-0.175
-0.28
-0.34
-0.355
-0.33
-0.245
-0.175
-0.14
-0.13
-0.125
-0.135
-0.14
-0.13
-0.12
-0.145
-0.23
-0.275
-0.265
-0.195
-0.14
-0.11
-0.095
-0.095
-0.11
-0.16
-0.21
-0.23
-0.23
-0.205
-0.18
-0.17
-0.175
-0.17
-0.165
-0.16
-0.16
-0.16
-0.155
-0.155
-0.155
-0.155
-0.15
-0.125
-0.105
-0.1
-0.095
-0.08
-0.07
-0.075
-0.125
-0.17
-0.195
-0.215
-0.22
-0.215
-0.195
-0.17
-0.165
-0.16
-0.15
-0.145
-0.14
-0.135
-0.135
-0.135
-0.135
-0.125
-0.1
-0.09
-0.095
-0.12
-0.13
-0.13
-0.135
-0.135
-0.135
-0.14
-0.15
-0.175
-0.26
-0.39
-0.535
-0.65
-0.715
-0.705
-0.545
-0.275
0.08
0.575
1.175
1.695
1.95
1.915
1.565
1.085
0.625
0.29
0.085
-0.075
-0.265
-0.465
-0.575
-0.58
-0.49
-0.415
-0.395
-0.39
-0.395
-0.395
-0.395
-0.395
-0.4
-0.395
-0.355
-0.31
-0.29
-0.28
-0.26
-0.24
-0.215
-0.185
-0.16
-0.15
-0.155
-0.165
-0.17
-0.17
-0.17
-0.17
-0.17
-0.165
-0.16
-0.16
-0.16
-0.16
-0.16
-0.165
-0.165
-0.165
-0.16
-0.17
-0.21
-0.23
-0.23
-0.2
-0.095
0.01
0.06
0.045
-0.06
-0.13
-0.135
-0.085
-0.065
-0.08
-0.155
-0.22
-0.255
-0.26
-0.215
-0.17
-0.165
-0.2
-0.225
-0.21
-0.125
-0.06
-0.05
-0.085
-0.125
-0.165
-0.25
-0.33
-0.33
-0.2
-0.045
0.015
-0.01
-0.15
-0.235
-0.245
-0.185
-0.15
-0.15
-0.18
-0.2
-0.205
-0.195
-0.18
-0.17
-0.17
-0.19
-0.22
-0.225
-0.22
-0.22
-0.22
-0.22
-0.21
-0.205
-0.2
-0.2
-0.195
-0.175
-0.13
-0.115
-0.12
-0.16
-0.17
-0.165
-0.12
-0.07
-0.04
-0.01
0.045
0.125
0.19
0.215
0.22
0.215
0.205
0.2
0.205
0.2
0.105
-0.015
-0.08
-0.09
-0.085
-0.035
0.02
0.08
0.135
0.18
0.205
0.205
0.2
0.195
0.19
0.185
0.145
-0.03
-0.33
-0.625
-0.775
-0.79
-0.675
-0.555
-0.495
-0.49
-0.475
-0.355
-0.195
-0.12
-0.12
-0.16
-0.185
-0.185
-0.17
-0.16
-0.16
-0.155
-0.145
-0.12
-0.1
-0.095
-0.105
-0.125
-0.145
-0.15
-0.155
-0.15
-0.125
-0.105
-0.1
-0.115
-0.135
-0.145
-0.145
-0.14
-0.13
-0.125
-0.12
-0.125
-0.115
-0.075
-0.05
-0.05
-0.065
-0.1
-0.115
-0.125
-0.125
-0.115
-0.105
-0.1
-0.1
-0.1
-0.08
-0.06
-0.04
-0.03
-0.015
-0.01
-0.01
-0.01
-0.01
-0.025
-0.05
-0.06
-0.06
-0.055
-0.05
-0.05
-0.07
-0.105
-0.13
-0.135
-0.12
-0.065
-0.02
0.005
0.01
-0.005
-0.075
-0.135
-0.15
-0.145
-0.135
-0.135
-0.135
-0.135
-0.135
-0.165
-0.205
-0.225
-0.205
-0.14
-0.125
-0.155
-0.2
-0.21
-0.215
-0.215
-0.215
-0.18
-0.145
-0.155
-0.26
-0.365
-0.405
-0.385
-0.305
-0.265
-0.285
-0.4
-0.505
-0.535
-0.51
-0.42
-0.365
-0.355
-0.355
-0.365
-0.365
-0.37
-0.37
-0.37
-0.33
-0.26
-0.19
-0.175
-0.18
-0.19
-0.13
-0.015
0.035
0.005
-0.115
-0.18
-0.18
-0.145
-0.135
-0.175
-0.215
-0.22
-0.185
-0.135
-0.115
-0.125
-0.185
-0.215
-0.22
-0.17
-0.095
-0.075
-0.11
-0.175
-0.195
-0.19
-0.195
-0.235
-0.285
-0.28
-0.1
0.195
0.535
0.93
1.35
1.695
1.86
1.86
1.665
1.36
1.02
0.685
0.385
0.15
-0.025
-0.16
-0.26
-0.325
-0.37
-0.44
-0.525
-0.585
-0.605
-0.605
-0.575
-0.49
-0.4
-0.365
-0.365
-0.4
-0.43
-0.44
-0.415
-0.37
-0.335
-0.315
-0.305
-0.305
-0.335
-0.345
-0.32
-0.28
-0.275
-0.28
-0.27
-0.215
-0.2
-0.245
-0.32
-0.34
-0.305
-0.245
-0.22
-0.215
-0.215
-0.23
-0.23
-0.23
-0.22
-0.22
-0.23
-0.245
-0.245
-0.24
-0.225
-0.22
-0.215
-0.21
-0.205
-0.18
-0.155
-0.145
-0.15
-0.165
-0.185
-0.185
-0.165
-0.105
-0.075
-0.065
-0.07
-0.08
-0.08
-0.075
-0.06
-0.055
-0.055
-0.055
-0.06
-0.065
-0.06
-0.04
-0.02
-0.01
-0.005
-0.005
0
0
0.025
0.06
0.07
0.005
-0.075
-0.1
-0.09
-0.025
0.02
0.03
0.03
0
-0.035
-0.05
-0.055
-0.05
-0.045
-0.04
-0.04
-0.035
-0.025
-0.005
0.01
0.02
0.015
0.01
0.005
0.01
0.035
0.065
0.07
0.05
0
-0.02
-0.02
0.04
0.1
0.12
0.105
0.055
0.035
0.035
0.035
0.035
0.025
-0.015
-0.045
-0.06
-0.055
-0.025
0
-0.005
-0.065
-0.11
-0.115
-0.085
-0.05
-0.035
-0.035
-0.035
-0.045
-0.05
0
0.205
0.54
0.98
1.4
1.645
1.695
1.58
1.35
1.09
0.845
0.635
0.46
0.3
0.145
0.02
-0.035
-0.05
-0.055
-0.055
-0.06
-0.08
-0.1
-0.105
-0.1
-0.09
-0.09
-0.11
-0.125
-0.13
-0.125
-0.09
-0.06
-0.07
-0.16
-0.235
-0.255
-0.225
-0.165
-0.145
-0.145
-0.145
-0.15
-0.14
-0.12
-0.115
-0.12
-0.135
-0.14
-0.145
-0.165
-0.185
-0.195
-0.19
-0.175
-0.16
-0.17
-0.225
-0.26
-0.265
-0.255
-0.25
-0.26
-0.28
-0.285
-0.275
-0.25
-0.245
-0.24
-0.235
-0.225
-0.225
-0.225
-0.215
-0.175
-0.14
-0.115
-0.095
-0.09
-0.1
-0.145
-0.175
-0.18
-0.18
-0.175
-0.135
-0.1
-0.09
-0.095
-0.1
-0.095
-0.09
-0.1
-0.12
-0.125
-0.115
-0.095
-0.09
-0.085
-0.085
-0.09
-0.09
-0.09
-0.09
-0.085
-0.06
-0.025
-0.01
-0.02
-0.12
-0.195
-0.205
-0.15
-0.075
-0.05
-0.045
-0.08
-0.115
-0.125
-0.12
-0.105
-0.1
-0.095
-0.09
-0.085
-0.08
-0.08
-0.08
-0.055
-0.02
-0.005
-0.005
-0.005
0.005
0.01
0.01
0.01
0.01
0
-0.02
-0.025
-0.015
-0.015
-0.06
-0.105
-0.115
-0.115
-0.12
-0.12
-0.115
-0.105
-0.105
-0.11
-0.11
-0.11
-0.115
-0.105
-0.07
0
0.115
0.31
0.565
0.865
1.17
1.395
1.47
1.385
1.1
0.785
0.545
0.4
0.315
0.23
0.135
0.06
0.01
-0.025
-0.06
-0.085
-0.095
-0.105
-0.11
-0.11
-0.11
-0.125
-0.145
-0.155
-0.16
-0.165
-0.17
-0.17
-0.17
-0.165
-0.17
-0.195
-0.22
-0.22
-0.22
-0.19
-0.135
-0.09
-0.09
-0.15
-0.23
-0.25
-0.245
-0.2
-0.17
-0.165
-0.175
-0.185
-0.185
-0.155
-0.135
-0.135
-0.155
-0.18
-0.185
-0.195
-0.215
-0.24
-0.25
-0.26
-0.265
-0.265
-0.26
-0.255
-0.255
-0.26
-0.26
-0.255
-0.23
-0.18
-0.145
-0.14
-0.15
-0.165
-0.16
-0.125
-0.095
-0.08
-0.075
-0.07
-0.07
-0.07
-0.07
-0.065
-0.065
-0.06
-0.06
-0.055
-0.06
-0.065
-0.065
-0.065
-0.065
-0.065
-0.065
-0.065
-0.065
-0.065
-0.065
-0.065
-0.06
-0.065
-0.075
-0.1
-0.105
-0.105
-0.09
-0.075
-0.07
-0.07
-0.06
-0.03
-0.015
-0.015
-0.03
-0.045
-0.045
-0.045
-0.05
-0.06
-0.06
-0.04
0.01
0.05
0.055
0.06
0.05
0.03
0.015
0.005
0.005
0.01
0.015
0.015
0
-0.01
-0.02
-0.02
-0.025
-0.03
-0.03
-0.03
-0.07
-0.125
-0.14
-0.14
-0.105
-0.07
-0.055
-0.055
-0.075
-0.085
-0.005
0.215
0.525
0.86
1.145
1.325
1.38
1.35
1.15
0.88
0.605
0.39
0.235
0.12
0.045
0.005
-0.01
-0.03
-0.065
-0.105
-0.14
-0.16
-0.16
-0.155
-0.135
-0.125
-0.13
-0.16
-0.185
-0.195
-0.195
-0.19
-0.185
-0.185
-0.18
-0.175
-0.175
-0.19
-0.19
-0.13
-0.08
-0.075
-0.13
-0.175
-0.18
-0.145
-0.075
-0.055
-0.085
-0.18
-0.225
-0.225
-0.17
-0.145
-0.145
-0.165
-0.175
-0.17
-0.175
-0.18
-0.205
-0.23
-0.235
-0.24
-0.24
-0.235
-0.225
-0.22
-0.22
-0.22
-0.215
-0.215
-0.21
-0.205
-0.19
-0.18
-0.18
-0.18
-0.17
-0.145
-0.115
-0.1
-0.09
-0.09
-0.09
-0.075
-0.05
-0.04
-0.04
-0.04
-0.04
-0.04
-0.055
-0.065
-0.06
-0.05
-0.055
-0.06
-0.065
-0.055
-0.025
-0.02
-0.055
-0.115
-0.135
-0.12
-0.08
-0.065
-0.065
-0.065
-0.06
-0.03
-0.01
-0.01
-0.025
-0.04
-0.035
-0.04
-0.04
-0.04
-0.035
-0.035
-0.035
-0.03
-0.02
-0.015
-0.01
-0.005
0
0.02
0.035
0.04
0.04
0.035
0.035
0.03
0.005
-0.02
-0.035
-0.035
-0.025
-0.015
-0.02
-0.05
-0.075
-0.08
-0.085
-0.075
-0.055
-0.025
-0.015
-0.02
-0.035
-0.055
-0.06
-0.06
-0.06
-0.055
0.02
0.175
0.38
0.665
1.035
1.395
1.595
1.585
1.34
1.015
0.715
0.485
0.35
0.275
0.2
0.08
-0.045
-0.12
-0.135
-0.11
-0.06
-0.035
-0.04
-0.07
-0.11
-0.125
-0.13
-0.13
-0.13
-0.125
-0.135
-0.135
-0.12
-0.115
-0.125
-0.155
-0.165
-0.165
-0.16
-0.165
-0.175
-0.175
-0.165
-0.155
-0.16
-0.205
-0.225
-0.22
-0.155
-0.1
-0.085
-0.135
-0.21
-0.23
-0.21
-0.165
-0.145
-0.155
-0.2
-0.22
-0.225
-0.225
-0.21
-0.205
-0.205
-0.21
-0.215
-0.215
-0.215
-0.205
-0.19
-0.17
-0.155
-0.13
-0.1
-0.075
-0.07
-0.075
-0.1
-0.115
-0.12
-0.12
-0.12
-0.115
-0.105
-0.1
-0.095
-0.075
-0.035
-0.02
-0.015
-0.015
-0.02
-0.025
-0.03
-0.03
-0.025
-0.03
-0.03
-0.035
-0.035
-0.03
-0.03
-0.02
-0.005
0.015
0.025
0.01
-0.03
-0.055
-0.06
-0.065
-0.065
-0.06
-0.06
-0.045
0.005
0.04
0.035
-0.02
-0.08
-0.1
-0.105
-0.09
-0.06
-0.04
-0.035
-0.035
-0.02
0.005
0.035
0.055
0.06
0.065
0.07
0.05
0.01
-0.015
-0.02
-0.025
-0.03
-0.05
-0.07
-0.08
-0.085
-0.08
-0.08
-0.075
-0.08
-0.085
-0.06
0
0.02
-0.015
-0.095
-0.13
-0.13
-0.06
0.075
0.27
0.545
0.905
1.265
1.485
1.525
1.38
1.135
0.875
0.63
0.43
0.3
0.235
0.185
0.1
-0.025
-0.12
-0.14
-0.13
-0.11
-0.11
-0.145
-0.18
-0.19
-0.19
-0.18
-0.175
-0.175
-0.175
-0.155
-0.125
-0.115
-0.115
-0.115
-0.12
-0.125
-0.135
-0.13
-0.12
-0.12
-0.15
-0.185
-0.185
-0.17
-0.145
-0.14
-0.15
-0.175
-0.185
-0.185
-0.18
-0.18
-0.2
-0.23
-0.235
-0.235
-0.235
-0.225
-0.22
-0.23
-0.265
-0.285
-0.29
-0.285
-0.3
-0.33
-0.335
-0.31
-0.24
-0.195
-0.19
-0.195
-0.205
-0.205
-0.18
-0.135
-0.105
-0.105
-0.11
-0.155
-0.2
-0.225
-0.225
-0.185
-0.13
-0.115
-0.115
-0.11
-0.11
-0.105
-0.08
-0.06
-0.055
-0.085
-0.115
-0.12
-0.115
-0.1
-0.095
-0.095
-0.09
-0.085
-0.095
-0.1
-0.065
-0.03
-0.03
-0.035
-0.035
-0.035
-0.085
-0.15
-0.155
-0.09
-0.025
-0.015
-0.025
-0.03
-0.03
-0.015
0
0.005
0.01
0.01
0
-0.01
-0.01
-0.015
-0.01
0.025
0.085
0.11
0.11
0.065
0.025
0
-0.015
-0.03
-0.035
-0.035
-0.03
-0.03
-0.025
-0.02
-0.025
-0.03
-0.04
-0.075
-0.1
-0.11
-0.095
-0.07
-0.075
-0.105
-0.125
-0.125
-0.12
-0.065
0.08
0.325
0.66
1.06
1.4
1.56
1.54
1.31
1.04
0.805
0.61
0.445
0.315
0.2
0.1
0.015
-0.06
-0.13
-0.17
-0.18
-0.18
-0.16
-0.155
-0.165
-0.195
-0.205
-0.21
-0.205
-0.205
-0.205
-0.205
-0.19
-0.185
-0.19
-0.195
-0.2
-0.2
-0.165
-0.12
-0.11
-0.115
-0.165
-0.22
-0.26
-0.27
-0.255
-0.21
-0.195
-0.19
-0.195
-0.19
-0.16
-0.14
-0.135
-0.145
-0.175
-0.19
-0.195
-0.2
-0.2
-0.22
-0.26
-0.295
-0.305
-0.265
-0.205
-0.195
-0.215
-0.26
-0.265
-0.255
-0.21
-0.17
-0.145
-0.14
-0.14
-0.14
-0.115
-0.095
-0.075
-0.04
0
0.025
0.03
-0.005
-0.08
-0.135
-0.15
-0.135
-0.12
-0.12
-0.125
-0.13
-0.1
-0.05
-0.04
-0.045
-0.055
-0.055
-0.055
-0.06
-0.06
-0.06
-0.045
-0.005
0.015
0.01
-0.04
-0.11
-0.17
-0.205
-0.21
-0.205
-0.205
-0.2
-0.2
-0.2
-0.2
-0.2
-0.225
-0.24
-0.23
-0.18
-0.16
-0.195
-0.325
-0.465
-0.52
-0.495
-0.385
-0.345
-0.385
-0.465
-0.485
-0.49
-0.48
-0.475
-0.445
-0.375
-0.3
-0.265
-0.26
-0.26
-0.265
-0.36
-0.465
-0.475
-0.33
-0.185
-0.15
-0.195
-0.28
-0.345
-0.38
-0.39
-0.37
-0.325
-0.275
-0.215
-0.08
0.175
0.52
0.905
1.27
1.515
1.58
1.455
1.185
0.895
0.63
0.42
0.275
0.2
0.185
0.19
0.185
0.085
-0.05
-0.115
-0.125
-0.13
-0.135
-0.135
-0.125
-0.115
-0.115
-0.14
-0.145
-0.105
-0.05
-0.03
-0.03
-0.09
-0.15
-0.17
-0.15
-0.08
-0.06
-0.1
-0.17
-0.23
-0.28
-0.31
-0.315
-0.305
-0.235
-0.155
-0.12
-0.12
-0.155
-0.185
-0.185
-0.17
-0.155
-0.145
-0.14
-0.14
-0.145
-0.145
-0.14
-0.125
-0.12
-0.15
-0.205
-0.22
-0.2
-0.115
-0.07
-0.085
-0.19
-0.245
-0.24
-0.165
-0.095
-0.045
-0.015
-0.01
-0.01
-0.02
-0.02
0.02
0.06
0.06
0
-0.055
-0.06
-0.01
0.05
0.065
0.035
-0.025
-0.04
-0.025
0
0
-0.025
-0.05
-0.05
-0.035
-0.015
-0.01
-0.025
-0.055
-0.065
-0.055
0
0.025
0.02
-0.055
-0.115
-0.125
-0.125
-0.115
-0.08
-0.04
0
0.02
0.02
0.005
0
-0.005
-0.005
-0.005
0
0
0.005
0.02
0.035
0.045
0.045
0.05
0.055
0.05
0.03
0.005
-0.005
-0.015
-0.05
-0.095
-0.11
-0.11
-0.105
-0.105
-0.125
-0.14
-0.145
-0.135
-0.125
-0.115
-0.105
-0.095
-0.095
-0.1
-0.115
-0.12
-0.095
0
0.16
0.37
0.61
0.88
1.135
1.28
1.305
1.2
0.985
0.755
0.515
0.275
0.09
-0.005
-0.035
-0.04
-0.035
-0.03
-0.025
-0.105
-0.245
-0.33
-0.34
-0.25
-0.145
-0.115
-0.155
-0.22
-0.23
-0.22
-0.19
-0.155
-0.11
-0.085
-0.09
-0.12
-0.175
-0.25
-0.31
-0.33
-0.305
-0.18
-0.065
-0.025
-0.05
-0.125
-0.17
-0.175
-0.175
-0.16
-0.135
-0.125
-0.125
-0.12
-0.12
-0.115
-0.065
-0.015
-0.005
-0.1
-0.205
-0.225
-0.17
-0.1
-0.07
-0.07
-0.14
-0.195
-0.175
-0.05
0.005
-0.065
-0.215
-0.265
-0.21
-0.12
-0.09
-0.085
-0.085
-0.08
-0.14
-0.205
-0.22
-0.17
-0.03
0.095
0.135
0.12
0.05
0.045
0.1
0.115
0
-0.115
-0.13
-0.09
-0.04
-0.015
0.005
0.02
0.03
0.03
0.025
0.025
0.025
0.025
0.04
0.05
0.06
0.055
0.055
0.055
0.06
0.06
0.06
0.055
0.065
0.08
0.08
0.035
-0.005
-0.01
0.015
0.035
0.04
0.04
0.06
0.12
0.16
0.165
0.125
0.06
0.005
-0.02
-0.025
0
0.025
0.035
0.03
0.035
0.035
0.035
0
-0.055
-0.07
-0.055
0
0.045
0.055
0.05
-0.02
-0.135
-0.215
-0.215
-0.035
0.26
0.595
0.93
1.265
1.515
1.6
1.49
1.205
0.9
0.63
0.44
0.305
0.195
0.075
0.005
-0.005
0
0
-0.035
-0.11
-0.145
-0.15
-0.15
-0.15
-0.145
-0.14
-0.14
-0.145
-0.14
-0.14
-0.14
-0.13
-0.125
-0.12
-0.105
-0.05
-0.015
-0.025
-0.14
-0.235
-0.25
-0.185
-0.095
-0.06
-0.08
-0.145
-0.16
-0.135
-0.075
-0.04
-0.02
0.005
0.03
0.005
-0.13
-0.26
-0.295
-0.26
-0.17
-0.11
-0.075
-0.065
-0.065
-0.105
-0.13
-0.135
-0.135
-0.14
-0.155
-0.165
-0.165
-0.155
-0.14
-0.13
-0.125
-0.11
-0.065
-0.025
-0.015
-0.065
-0.145
-0.175
-0.17
-0.13
-0.085
-0.05
-0.03
-0.03
-0.07
-0.09
-0.095
-0.07
-0.045
-0.04
-0.035
-0.015
0.015
0.03
0.035
0.04
0.05
0.055
0.055
0.055
0.055
0.04
0.025
-0.005
-0.02
-0.02
0
0.03
0.05
0.055
0.05
0.015
-0.015
-0.02
-0.025
-0.005
0.01
0.02
0.02
0.015
0.02
0.045
0.08
0.11
0.11
0.07
0.02
0.005
0.005
0.01
0.02
0.015
0.01
0.01
0.04
0.095
0.125
0.125
0.08
0.005
-0.045
-0.055
-0.045
-0.015
-0.015
-0.045
-0.105
-0.145
-0.155
-0.125
0.025
0.27
0.555
0.875
1.16
1.31
1.315
1.16
0.935
0.71
0.485
0.305
0.185
0.12
0.075
0.02
-0.035
-0.07
-0.08
-0.08
-0.075
-0.07
-0.075
-0.1
-0.11
-0.11
-0.105
-0.1
-0.095
-0.095
-0.095
-0.12
-0.15
-0.16
-0.15
-0.115
-0.1
-0.095
-0.11
-0.15
-0.18
-0.18
-0.155
-0.115
-0.105
-0.105
-0.105
-0.1
-0.1
-0.095
-0.095
-0.095
-0.1
-0.105
-0.105
-0.1
-0.105
-0.105
-0.105
-0.105
-0.105
-0.11
-0.115
-0.12
-0.125
-0.135
-0.135
-0.135
-0.135
-0.15
-0.155
-0.145
-0.12
-0.105
-0.1
-0.095
-0.085
-0.075
-0.055
-0.035
-0.03
-0.065
-0.14
-0.18
-0.185
-0.18
-0.17
-0.16
-0.135
-0.085
-0.05
-0.045
-0.045
-0.045
-0.05
-0.05
-0.045
-0.035
-0.04
-0.045
-0.055
-0.055
-0.055
-0.05
-0.04
-0.03
-0.03
-0.035
-0.055
-0.055
-0.01
0.075
0.125
0.115
-0.005
-0.12
-0.15
-0.125
-0.05
-0.005
0.005
0
-0.025
-0.04
-0.02
0.04
0.065
0.07
0.05
0.03
0.025
0.03
0.03
0.015
-0.025
-0.055
-0.07
-0.075
-0.07
-0.07
-0.07
-0.07
-0.07
-0.075
-0.085
-0.085
-0.09
-0.09
-0.11
-0.125
-0.13
-0.125
-0.05
0.11
0.35
0.68
1.11
1.52
1.755
1.78
1.57
1.205
0.81
0.465
0.22
0.065
-0.035
-0.115
-0.165
-0.195
-0.235
-0.275
-0.315
-0.345
-0.365
-0.39
-0.415
-0.435
-0.45
-0.465
-0.465
-0.46
-0.455
-0.45
-0.45
-0.46
-0.47
-0.465
-0.44
-0.425
-0.42
-0.42
-0.42
-0.385
-0.325
-0.285
-0.27
-0.26
-0.245
-0.235
-0.235
-0.23
-0.225
-0.225
-0.225
-0.225
-0.225
-0.23
-0.24
-0.24
-0.23
-0.205
-0.19
-0.185
-0.19
-0.22
-0.26
-0.285
-0.295
-0.3
-0.305
-0.315
-0.315
-0.3
-0.255
-0.225
-0.215
-0.21
-0.21
-0.21
-0.21
-0.215
-0.225
-0.24
-0.255
-0.265
-0.27
-0.27
-0.28
-0.295
-0.325
-0.35
-0.36
-0.36
-0.36
-0.375
-0.4
-0.415
-0.42
-0.425
-0.43
-0.43
-0.425
-0.43
-0.435
-0.485
-0.555
-0.61
-0.63
-0.64
-0.675
-0.74
-0.805
-0.85
-0.875
-0.88
-0.89
-0.9
-0.91
-0.925
-0.945
-0.95
-0.95
-0.945
-0.945
-0.945
-0.935
-0.915
-0.91
-0.905
-0.905
-0.885
-0.87
-0.88
-0.925
-0.96
-0.985
-1.02
-1.05
-1.065
-1.07
-1.095
-1.14
-1.17
-1.165
-1.125
-1.07
-1.055
-1.05
-1.04
-0.95
-0.84
-0.755
-0.71
-0.705
-0.68
-0.545
-0.27
0.1
0.54
1.045
1.515
1.8
1.86
1.735
1.435
1.03
0.61
0.28
0.08
-0.015
-0.085
-0.17
-0.25
-0.31
-0.345
-0.355
-0.355
-0.35
-0.35
-0.355
-0.355
-0.35
-0.35
-0.35
-0.34
-0.31
-0.3
-0.3
-0.3
-0.3
-0.295
-0.29
-0.29
-0.29
-0.29
-0.285
-0.27
-0.27
-0.265
-0.265
-0.265
-0.25
-0.245
-0.245
-0.255
-0.27
-0.27
-0.285
-0.31
-0.335
-0.35
-0.36
-0.365
-0.365
-0.38
-0.42
-0.465
-0.475
-0.475
-0.47
-0.475
-0.475
-0.475
-0.455
-0.44
-0.435
-0.415
-0.39
-0.365
-0.35
-0.345
-0.35
-0.37
-0.37
-0.355
-0.335
-0.33
-0.335
-0.335
-0.325
-0.31
-0.31
-0.315
-0.34
-0.35
-0.35
-0.355
-0.345
-0.34
-0.345
-0.35
-0.355
-0.355
-0.345
-0.31
-0.3
-0.295
-0.3
-0.305
-0.305
-0.305
-0.305
-0.31
-0.315
-0.315
-0.31
-0.31
-0.29
-0.27
-0.26
-0.26
-0.265
-0.265
-0.23
-0.2
-0.195
-0.195
-0.195
-0.195
-0.195
-0.17
-0.145
-0.135
-0.125
-0.115
-0.11
-0.13
-0.17
-0.175
-0.15
-0.115
-0.11
-0.11
-0.13
-0.16
-0.18
-0.195
-0.195
-0.195
-0.19
-0.19
-0.185
-0.185
-0.185
-0.185
-0.19
-0.195
-0.205
-0.23
-0.22
-0.07
0.19
0.53
0.955
1.385
1.69
1.775
1.71
1.505
1.22
0.85
0.46
0.14
-0.04
-0.105
-0.13
-0.17
-0.215
-0.245
-0.27
-0.285
-0.29
-0.295
-0.315
-0.33
-0.33
-0.32
-0.29
-0.255
-0.22
-0.205
-0.2
-0.2
-0.205
-0.21
-0.21
-0.21
-0.215
-0.235
-0.27
-0.305
-0.31
-0.305
-0.29
-0.285
-0.285
-0.29
-0.285
-0.29
-0.295
-0.31
-0.33
-0.345
-0.35
-0.35
-0.345
-0.325
-0.305
-0.3
-0.295
-0.29
-0.29
-0.275
-0.265
-0.26
-0.265
-0.275
-0.28
-0.28
-0.285
-0.275
-0.235
-0.205
-0.195
-0.195
-0.2
-0.195
-0.19
-0.185
-0.185
-0.19
-0.195
-0.195
-0.175
-0.15
-0.145
-0.17
-0.19
-0.19
-0.175
-0.165
-0.16
-0.165
-0.195
-0.225
-0.24
-0.245
-0.245
-0.25
-0.26
-0.275
-0.29
-0.3
-0.31
-0.33
-0.345
-0.345
-0.35
-0.355
-0.355
-0.35
-0.345
-0.335
-0.32
-0.29
-0.265
-0.245
-0.235
-0.225
-0.205
-0.17
-0.12
-0.075
-0.055
-0.045
-0.045
-0.03
0
0.025
0.025
0.025
0.015
0.01
0.01
0.005
-0.015
-0.07
-0.11
-0.12
-0.115
-0.105
-0.1
-0.105
-0.125
-0.135
-0.135
-0.14
-0.14
-0.135
-0.14
-0.135
-0.125
-0.09
0.035
0.27
0.59
1.005
1.5
1.95
2.225
2.29
2.13
1.77
1.28
0.765
0.375
0.165
0.065
0.02
-0.01
-0.045
-0.085
-0.135
-0.19
-0.225
-0.235
-0.235
-0.235
-0.265
-0.28
-0.275
-0.24
-0.225
-0.23
-0.235
-0.235
-0.23
-0.22
-0.215
-0.21
-0.205
-0.21
-0.215
-0.225
-0.22
-0.22
-0.22
-0.22
-0.215
-0.21
-0.21
-0.205
-0.2
-0.2
-0.2
-0.195
-0.195
-0.2
-0.205
-0.21
-0.195
-0.175
-0.165
-0.165
-0.16
-0.15
-0.15
-0.145
-0.135
-0.125
-0.125
-0.125
-0.125
-0.11
-0.085
-0.055
-0.04
-0.03
-0.03
-0.035
-0.035
-0.03
-0.015
-0.015
-0.02
-0.04
-0.055
-0.075
-0.085
-0.085
-0.07
-0.065
-0.07
-0.075
-0.085
-0.095
-0.095
-0.095
-0.09
-0.09
-0.09
-0.09
-0.09
-0.09
-0.09
-0.085
-0.08
-0.075
-0.085
-0.095
-0.1
-0.1
-0.105
-0.11
-0.11
-0.1
-0.095
-0.085
-0.065
-0.045
-0.035
-0.035
-0.035
-0.035
-0.03
-0.035
-0.035
-0.025
-0.01
0.01
0.015
0.02
0.02
0
-0.005
-0.005
0
0
0.005
-0.005
-0.035
-0.06
-0.07
-0.07
-0.065
-0.06
-0.065
-0.09
-0.115
-0.115
-0.115
-0.095
-0.085
-0.09
-0.135
-0.14
0
0.265
0.595
1
1.485
1.93
2.17
2.19
1.95
1.54
1.07
0.645
0.335
0.15
0.035
-0.035
-0.055
-0.055
-0.055
-0.075
-0.125
-0.145
-0.145
-0.15
-0.15
-0.17
-0.195
-0.21
-0.215
-0.215
-0.21
-0.195
-0.185
-0.185
-0.195
-0.205
-0.205
-0.205
-0.205
-0.2
-0.2
-0.2
-0.2
-0.195
-0.195
-0.195
-0.18
-0.165
-0.165
-0.18
-0.21
-0.22
-0.225
-0.23
-0.235
-0.235
-0.225
-0.225
-0.225
-0.22
-0.195
-0.18
-0.175
-0.175
-0.17
-0.16
-0.135
-0.125
-0.125
-0.145
-0.155
-0.155
-0.145
-0.13
-0.12
-0.1
-0.09
-0.09
-0.09
-0.095
-0.1
-0.095
-0.1
-0.095
-0.085
-0.085
-0.115
-0.14
-0.14
-0.14
-0.145
-0.17
-0.175
-0.16
-0.125
-0.115
-0.115
-0.12
-0.13
-0.14
-0.145
-0.15
-0.145
-0.155
-0.165
-0.17
-0.17
-0.175
-0.18
-0.18
-0.18
-0.175
-0.145
-0.125
-0.12
-0.12
-0.125
-0.13
-0.125
-0.11
-0.11
-0.115
-0.14
-0.14
-0.14
-0.115
-0.085
-0.06
-0.05
-0.03
-0.015
0
0
-0.005
-0.015
-0.03
-0.035
-0.035
-0.03
-0.035
-0.095
-0.155
-0.175
-0.17
-0.13
-0.115
-0.11
-0.1
-0.085
-0.08
-0.075
-0.075
-0.07
-0.065
-0.03
0.08
0.28
0.57
0.96
1.41
1.805
2.035
2.075
1.92
1.61
1.22
0.82
0.485
0.255
0.115
0.02
-0.05
-0.105
-0.15
-0.19
-0.215
-0.225
-0.225
-0.24
-0.275
-0.3
-0.3
-0.295
-0.28
-0.26
-0.245
-0.235
-0.235
-0.235
-0.225
-0.215
-0.215
-0.22
-0.225
-0.24
-0.25
-0.255
-0.255
-0.25
-0.245
-0.24
-0.24
-0.235
-0.24
-0.24
-0.245
-0.245
-0.24
-0.24
-0.255
-0.26
-0.255
-0.245
-0.23
-0.22
-0.205
-0.2
-0.2
-0.2
-0.195
-0.19
-0.175
-0.16
-0.145
-0.12
-0.085
-0.04
-0.005
0.005
0.005
0
0
0
-0.01
-0.025
-0.045
-0.065
-0.075
-0.075
-0.075
-0.07
-0.075
-0.09
-0.085
-0.025
0.03
0.03
-0.06
-0.155
-0.195
-0.205
-0.21
-0.19
-0.165
-0.165
-0.215
-0.25
-0.25
-0.215
-0.15
-0.11
-0.095
-0.09