360
0.444832079864132
0.447143178658424
0.445941731799798
0.447081611140659
0.447050640722465
0.450531883690782
0.451667895708647
0.451629104711513
0.452758695263452
0.449201748772768
0.444472669183532
0.440913076982276
0.439691767302189
0.440809108042255
0.439584482693551
0.446554799294384
0.444157387933893
0.446442138258969
0.444040760887666
0.445148516281474
0.449766856170066
0.445016722040098
0.443779155346163
0.443712967101961
0.441304250745539
0.443578392154791
0.445851127383300
0.446951547065148
0.449222416443559
0.451492716532983
0.454930813488556
0.456024323393947
0.453603465630370
0.450009179460503
0.448755502889247
0.448671760833718
0.446244252826333
0.449668787571196
0.450752506508577
0.448324728552078
0.454092265733106
0.451664934624210
0.450407122313170
0.450318773174889
0.453742976094629
0.453654712046787
0.450052595872845
0.447619819291342
0.444015274826849
0.443921759408899
0.444998973213572
0.443734665045352
0.447152634382888
0.444716181008574
0.449301593945910
0.455054683705715
0.451439741704309
0.448993101390059
0.445374319378850
0.446437366050478
0.443985651073859
0.440360940089251
0.442589833149658
0.445989222228383
0.452899851672919
0.453955974170825
0.451497690199822
0.453720331684675
0.451258783271303
0.451137373294396
0.449846368331957
0.445044594786322
0.447267585778065
0.445979126985610
0.447031866931475
0.450425730610908
0.458503607026143
0.460728284160675
0.457097475501788
0.460489742702527
0.452173644808510
0.454393406613349
0.455442994034241
0.454151779119083
0.456372358879888
0.453909708170592
0.457299444734797
0.461858199794245
0.465245383239429
0.467460578573799
0.467333531457569
0.469547425866571
0.464735411534461
0.458751479957844
0.463304929579729
0.459663367792299
0.460704676148493
0.455892248674787
0.458103584661930
0.469680166839651
0.471890408298247
0.476441850854815
0.479819682706451
0.479682197638626
0.478371952299879
0.470034370287140
0.465208078298492
0.452185352671651
0.452038746300705
0.450719238527677
0.452911409750608
0.465639848145425
0.471342363785382
0.477043949631524
0.479230983774850
0.476732591488319
0.469549662913968
0.463535773172535
0.455180545721939
0.444484249826818
0.438470387171142
0.435968749091873
0.434636837372606
0.435645342630566
0.430799800821042
0.431807796577546
0.435155241089675
0.436159007711504
0.434819824681002
0.431137254929462
0.430966469991415
0.426112115912755
0.423597855901728
0.426936308871547
0.426763815991727
0.427763636600969
0.429934777852130
0.427424068803735
0.433108353308642
0.436450596825060
0.437452300738484
0.432600819442056
0.434773230705117
0.432261851373039
0.430921101018475
0.433092212235969
0.432922619435052
0.437437092205404
0.439610074512617
0.438271113740412
0.446296642229343
0.441441614100953
0.443610496471509
0.441094907856427
0.438579004805230
0.438404441463936
0.438228603210269
0.434539372166829
0.430850969932117
0.433017306094632
0.429329838560382
0.426813705242082
0.425467529392309
0.425291224911462
0.425115095392116
0.423768061075819
0.420077941645765
0.422240160215803
0.422059722715652
0.432414806850181
0.454477262411915
0.491759443981223
0.546602040190844
0.601443600520675
0.653943199166842
0.690051450650210
0.705085072002131
0.695531866180987
0.662561988049178
0.607346176008801
0.529884839066447
0.443056378184013
0.358569935659167
0.285791898651321
0.244624720516823
0.228044134028994
0.236049436793852
0.256932804702908
0.284841056570919
0.310407838608505
0.332461241950527
0.351001268107542
0.367199157538763
0.382225412073392
0.394910110784896
0.404082537627390
0.412083598149319
0.417742710948690
0.424569913249892
0.429052569518118
0.430021118555724
0.432157986030198
0.434293558446238
0.435257116082797
0.439730558883323
0.440689427095043
0.446331049888315
0.449630737651988
0.454100012531117
0.456226984099652
0.456010179031907
0.468669572864400
0.463766030781622
0.465885518504361
0.464492362473658
0.461928345439331
0.467558788216241
0.464993202061969
0.469451147882635
0.469224779993177
0.471339379814464
0.475794834700341
0.477906632847815
0.482357844661695
0.482124407098402
0.479547515424812
0.481652803947078
0.476732562204531
0.487030771324212
0.485619765398513
0.485380083797106
0.490994942367700
0.497780443176236
0.501054025365876
0.500814348981980
0.505256812707848
0.503845581837296
0.503605064315494
0.505704885510944
0.499608109930653
0.499364466570894
0.495607477853050
0.493021267903416
0.505655235508686
0.510093133026264
0.512189088376314
0.516624592758075
0.517545537339697
0.517294423107287
0.517041554686145
0.516787714419349
0.516532968772288
0.520959613447316
0.517189251003389
0.520443416019432
0.528380562788522
0.531633876459576
0.531374486416578
0.529942889710240
0.536705228988961
0.535271436580551
0.531495158837780
0.528900616329581
0.526318343734320
0.531938051555170
0.535226229733448
0.535005489840697
0.538300254080668
0.542775472097767
0.542576093978668
0.541205626220009
0.544518197690363
0.543151256731905
0.538273565292226
0.541600068672143
0.535569737754127
0.535397586258836
0.539914592949975
0.542088251454774
0.544258910373883
0.551114749442115
0.549774932300389
0.548438422150969
0.547105645414899
0.543431280497554
0.544440729948076
0.536092480228296
0.535948377639532
0.535809723174873
0.530995407107321
0.526183054680996
0.528396998935820
0.531787773771038
0.525817203171112
0.523354529978160
0.516203907766882
0.510222785071343
0.514774847925761
0.506451021270409
0.503983944156948
0.498001912591251
0.495530841011928
0.493063562560621
0.488258237116968
0.490479362582874
0.489191111428080
0.487901200885350
0.486609325881181
0.479464793365948
0.469978847973155
0.465184074326388
0.463910772939161
0.459129729946263
0.456697151552908
0.453096844115921
0.453011614337753
0.455274697740957
0.450519139691514
0.450445848688717
0.449200924482742
0.446787242109525
0.442032351424257
0.439624490611799
0.433710153840673
0.431310100742232
0.428913177727519
0.433536068354417
0.435811326888793
0.435743549282747
0.434501099501338
0.434429209188243
0.435528114240104
0.431939874166211
0.433031345335223
0.434126632265322
0.424688719200083
0.421105318640920
0.418695038149067
0.424477102733622
0.424401714292434
0.424326809146863
0.425421864812140
0.425349377285164
0.427622469250819
0.424042805630585
0.421636280324862
0.419230632883335
0.415654859017302
0.415593905284158
0.413193585395310
0.411961628636634
0.413068672773052
0.415345965127972
0.417621551455010
0.412873913267882
0.411640260006329
0.413918037972222
0.410341717467712
0.406773098905807
0.406725014023479
0.405511120853717
0.406645956966438
0.405441242044500
0.412433812318974
0.412408135430875
0.415900236102464
0.418222251842919
0.417032861589747
0.415846124712282
0.408807086874224
0.408798442331660
0.411137395321519
0.407625636287711
0.407630380806979
0.408803898360911
0.412316108500753
0.413487582268356
0.418170407494589
0.420513665006058
0.412322187586667
0.411154552996462
0.408815909662366
0.408824161187161
0.407667033069373
0.408854542817022
0.412388076173900
0.410068119761827
0.408919061040149
0.408944069334247
0.410142233874272
0.416016488708295
0.412516897365830
0.414867311332342
0.413698870617202
0.412530047951407
0.412531769774662
0.406673902187100
0.409006896432225
0.408999342122460
0.411334035442234
0.416008907970130
0.417171301829684
0.419499381232222
0.417138856520336
0.419459308255486
0.418264080167529
0.415902311478746
0.414716569504055
0.408848433679563
0.412349415091166
0.412337242665558
0.414665438902813
0.416996231843797
0.418158081905086
0.420485695659598
0.419295869681717
0.415762175846814
0.412224444860668
0.408687643915397
0.408664413076990
0.408638508378642
0.407440240943952
0.412099663645355
0.414421427213443
0.416745316257475
0.416731209324600
0.420228927030249
0.419042934923496
0.417859644567341
0.416678266966845
0.414325520869517
0.409630844164378
0.411961171678956
0.410778965568232
0.410769767242298
0.413104505929115
0.418952343939638
0.418947641812238
0.420109901234661
0.420096919942032
0.417740794386193
0.417723137351993
0.416534243950745
0.414174308212448
0.414153010677013
0.414129303272570
0.415278252642656
0.416429076536134
0.422263120378433
0.422244432197618
0.419882101231192
0.423371333949576
0.419836037088520
0.420983239951395
0.417454840500701
0.415105815294060
0.416273379443672
0.410422957331052
0.413941348365571
0.416291349171218
0.418647997837258
0.421010579523147
0.416347685156756
0.423391834975257
0.418730381610666
0.416411071630028
0.418780701119238
0.416473507771997
0.420022657653974
0.422404751885774
0.422444391303657
0.428336207982038
0.428375579143821
0.430756569077845
0.431968725725046
0.436695413508327
0.435568257959373
0.432099978873847
0.429807841739183
0.425179650367980
0.426408726749921
0.428813224117062
0.433560506877412
0.437138023361397
0.439548535617062
0.450157520287164
0.445542297311184
0.450288796619054
0.445667419268175
0.442213191534283
0.435247792001453
0.425942146161513
0.423658314522559
0.421372543797672
0.423772088035225
0.429685955435082
0.434429581276203
0.440345453344017
0.443917588495516
0.442804170161665
0.441690833584293
0.430039712079990
0.424247460426745
0.413777877894236
0.405652241265393
0.402213790200038
0.399947400869788
0.397682055571430
0.401274539810716
0.402528867927660
0.406123030017370
0.406203105070692
0.406283558037698
0.402850794818301
0.402933255655059
0.399506543208049
0.400763186460676
0.400850153523057
0.400935750212373
0.404531735887768
0.406956771659859
0.411722390474868
0.412975434359614
0.411886770529852
0.411967621215528
0.408534982301500
0.409787146921455
0.406357943295396
0.405270682070559
0.407696833134409
0.407780501607335
0.412546161513686
0.412629142297551
0.418565958241051
0.420991026512178
0.423416895621416
0.424672125224027
0.421244595186412
0.418988148736580
0.417902725928557
0.415646980981376
0.413391676097384
0.408794129781828
0.405366604973862
0.405451183875125
0.400852123892935
0.400936333116013
0.403362300895417
0.399933980946740
0.395334624721436
0.387226008129117
0.384974605084112
0.381554281236879
0.394527631189522
0.419209473387976
0.455599727234942
0.504871047370892
0.559998378892290
0.610442546462573
0.646837407871570
0.662159120939297
0.656407183242069
0.629583420910796
0.579346414921999
0.501011759417209
0.408629214457770
0.315074922497727
0.243764069637709
0.202893558796292
0.194804234662243
0.212472542279335
0.241849258198367
0.268883866657034
0.294747359949429
0.314758862349684
0.331259951801325
0.346591236535999
0.356070160458543
0.369061314770415
0.382052251083110
0.395044231524774
0.401012224843641
0.406981122554071
0.416463418977069
0.415409416696404
0.417868544200779
0.423840968533270
0.423960450487428
0.432276333080061
0.431226998918352
0.438373470923504
0.444349492835360
0.449155406810814
0.455132604090623
0.457598352832377
0.460065024739145
0.457849189409749
0.455634043846774
0.460444531569309
0.453548207551582
0.463043657151028
0.458490742730155
0.462133999476855
0.461094874513821
0.467081317565062
0.473068619656188
0.474373614288745
0.476850205339805
0.473473728642855
0.474781171038687
0.478431064245109
0.473886417959088
0.476367289711283
0.476507483411413
0.478989215268020
0.484983170204790
0.487465121263655
0.493459474487576
0.491258961674031
0.494912932979963
0.497396240029597
0.495196644233621
0.497681020163677
0.494312358364650
0.500310498301326
0.498113934736897
0.500600689683767
0.507770721304558
0.510258193183265
0.513916865825420
0.512893410858349
0.514212582572653
0.516703245512415
0.513340902079358
0.515833084070084
0.514813547053079
0.513794890841028
0.523314063048366
0.519954965293564
0.527133132164121
0.530799474297082
0.532124629997060
0.531108993175391
0.533606477482003
0.534933662945506
0.535090637426388
0.535251920145535
0.530734751402001
0.532074438896499
0.529905844825185
0.527739084543007
0.536111083333401
0.538633055628181
0.536475382041099
0.535489380764941
0.536845923617570
0.539375262632998
0.541906041309391
0.539757298742144
0.536441550645371
0.540152735382001
0.545037493503658
0.545239274961194
0.546611578834310
0.553839183136074
0.555213542982802
0.557760564215248
0.557968053170375
0.558176264749922
0.552531571021821
0.553915072494606
0.552960602689156
0.549667107013423
0.551059897620518
0.548941720514003
0.549166351508262
0.551735239400497
0.547281773307847
0.547511126678571
0.543056991655197
0.542115758236398
0.545857502365335
0.536722423514380
0.532272233796884
0.528993050035124
0.524543678001242
0.523608592505714
0.522675374814073
0.522914366647528
0.518471987407093
0.518713204829932
0.516613274858563
0.507489943833684
0.503050689187177
0.497443926875975
0.495353070997248
0.493264482661920
0.486495725167799
0.487924209264217
0.487012853111130
0.486104383353568
0.485198582385214
0.480781153642653
0.482218313696011
0.475461554427875
0.473388947291786
0.470148081311935
0.465739065429955
0.464843888692206
0.462779781182224
0.460714869545974
0.456307210462548
0.457753733068060
0.463882863049577
0.461817312917556
0.462094153040736
0.458858134930981
0.456792587860695
0.452387507969468
0.443301327084529
0.443582357963857
0.442694156981188
0.442976506417398
0.445600030299907
0.448224486282062
0.447337118206810
0.449963992503824
0.450251486661641
0.447027839309951
0.442635028333008
0.440584850946528
0.433852566090812
0.435317366964424
0.434442149876633
0.437079244401314
0.437374719343888
0.438841585960703
0.439137892067307
0.441777038644654
0.440905211475581
0.440033875999547
0.433309379819058
0.433612789500879
0.429236485262443
0.428374889581883
0.428687147561205
0.429000823298696
0.432828197929241
0.433146066485838
0.434637225705076
0.432617072587570
0.432939568551452
0.432092919623881
0.430076790278672
0.432746374876274
0.429564776056335
0.427555752757664
0.430231951130921
0.428225165914141
0.429730563084091
0.432407766902623
0.431573089668237
0.431910598073427
0.433420378881599
0.434930661486414
0.435270858148185
0.433271975012411
0.437129469445334
0.433964051146204
0.434313157868740
0.432321596681598
0.435013941744700
0.436537321538647
0.438062220349030
0.439568315104199
0.441053627583180
0.442527448607089
0.439300778445810
0.438410150981457
0.435172836682712
0.433089837417720
0.433334042092322
0.430065761170033
0.432650714899869
0.442253932753900
0.441316963487266
0.445048104298594
0.444080114743025
0.443104378938678
0.443288775616506
0.441135253081822
0.440158235878390
0.438007161137182
0.435856948032439
0.438384082540199
0.439733926378084
0.442254978240011
0.441262746254187
0.446109659135887
0.445087651398065
0.440543980248784
0.440670571368137
0.439623307896551
0.439744332657433
0.434001154473720
0.431762101923846
0.435383409786284
0.443694845244900
0.446153969054805
0.446277081407366
0.445224544449054
0.446508377868711
0.445454202763264
0.443230775679887
0.443342576368452
0.443448526167398
0.444721935872580
0.443648708670681
0.447260633846785
0.447362730709061
0.456828650278562
0.454586079802956
0.455842256257615
0.455912348943130
0.452462128102453
0.452512494005671
0.447874339314264
0.444402032948439
0.444430585392450
0.438594985431728
0.442126360266383
0.442146168258413
0.445674467671476
0.446860052954823
0.448036207184631
0.449202315353438
0.448023100218706
0.448008990073043
0.448004074493008
0.442156645965523
0.443336901535324
0.442183092257893
0.444542020350813
0.444559374640296
0.445755127413471
0.448128039582574
0.444640384075865
0.447000007274571
0.444675600699699
0.442347176412397
0.443537006602207
0.442392061902088
0.444758863665968
0.441273572828215
0.443636075602267
0.447161779887189
0.448343878161444
0.455375429261460
0.455380886015369
0.454214567810941
0.455385185934942
0.450697907517407
0.449527689172023
0.450704003331828
0.453052253804271
0.451891562206532
0.455411360236726
0.458928131983123
0.458934407912899
0.460111980986524
0.458934357089145
0.460083783105543
0.460053653113210
0.452986142245558
0.452939902990761
0.451719776040301
0.455171440841350
0.457442763830616
0.459712926975692
0.469006167357147
0.471270128340690
0.471189803971775
0.474611716377131
0.472169094670299
0.470891688430797
0.460240730069197
0.454276721772264
0.448318096432738
0.445870552191688
0.445766564166265
0.449171519737919
0.457255704923914
0.463000040429405
0.467574234594833
0.469797475144555
0.461474223976031
0.454316417336420
0.441296898480736
0.434130787268356
0.429306250737924
0.423305246573069
0.423154082819284
0.420671710006142
0.424054407820329
0.422759621298110
0.422645258613518
0.428384820525584
0.428270317379184
0.428164088024060
0.423381257286487
0.422109027673352
0.420835575154854
0.418393105396481
0.419462929913615
0.418198573511748
0.418112966339936
0.421542663343614
0.421464825690802
0.428404515036380
0.429481618110880
0.425873979966091
0.426944387892548
0.423332540271674
0.425575996841412
0.423131786110563
0.419513449743639
0.422927073914590
0.427518906505030
0.433284617711159
0.434372996396924
0.438971730882300
0.441226453346315
0.438801699779118
0.436378877997301
0.433950148373715
0.433856975877010
0.427906409762083
0.428974925696368
0.428873092803574
0.427601041757634
0.427495486426378
0.426216040375197
0.426107759483795
0.427170317407278
0.425890422384235
0.425781157860791
0.420985170216717
0.418526910135617
0.418408659644267
0.424141925156693
0.440417496563356
0.464894770195940
0.508106490758591
0.557176331846004
0.608588025874118
0.654145845533935
0.683316750972134
0.692587651421380
0.673756773464862
0.632678015665722
0.557646201980445
0.458026011807367
0.350213125714993
0.256452657091466
0.201327297355792
0.181325815051037
0.188239824672063
0.220896840780604
0.252375846895454
0.285014545842056
0.310624074243097
0.329204759604704
0.347774443640835
0.360480394110157
0.375528702003486
0.388236112753058
0.399768844623808
0.411300165536774
0.411113997621580
0.416771278389668
0.420082621688111
0.422216799668670
0.429035169157114
0.431172804253454
0.433307751352784
0.435442231248565
0.438743952974135
0.446724837197208
0.448851385558584
0.454489182208122
0.455434868414124
0.458712893863472
0.457301987759433
0.454712457072891
0.457974451995484
0.453038998352395
0.452780209070332
0.453686944089627
0.456941196794178
0.460202017551512
0.462294188283842
0.466733132119757
0.468828190484531
0.473262239470277
0.477700267513788
0.469262288512004
0.472528140134178
0.471107280520350
0.470855863777195
0.476455539403149
0.475033480233362
0.482980976454106
0.485073967323578
0.485996927071653
0.490423848061961
0.490158037994560
0.494571053327412
0.487269351931688
0.495185224582424
0.493732727389960
0.492273496729724
0.491979170709329
0.490516261685623
0.499592594483905
0.500472371869483
0.507206908794475
0.511594807533101
0.511294093089201
0.510992463400620
0.508347015599703
0.508059361270962
0.505448795913420
0.504018031403020
0.508455690126126
0.509386047752075
0.511491789176816
0.513611965274986
0.518086485104950
0.522558826032105
0.524687694064261
0.522137955556766
0.521930805564276
0.522907256866784
0.521556027767061
0.519039380624775
0.521214074320020
0.523386001910350
0.525553327638594
0.528894245228150
0.527551629536449
0.532067120944574
0.533075130082168
0.534082822781691
0.535091180860935
0.532599427887303
0.532461778045864
0.529990233016327
0.529870874669575
0.534437269144480
0.533151937150910
0.538899926362229
0.538800974093537
0.537522022212498
0.539745340459339
0.539623467831767
0.539493524057882
0.534683345206059
0.533388734363521
0.530917155993311
0.526099937949157
0.528312670973071
0.529359450106541
0.530407815972690
0.525606012578082
0.523141253144569
0.526525307415009
0.517031472676697
0.512219465258431
0.506248641709106
0.502633172750851
0.501365354349733
0.493082852892522
0.489487062651855
0.489406687001709
0.485823734197812
0.481078537329630
0.481013328929691
0.478603398576038
0.475024417545030
0.466761203301505
0.460847076397896
0.456111896537181
0.456061377026810
0.452502058513561
0.452447948973372
0.454726475660774
0.458173290388698
0.458102021733082
0.456858801517335
0.455614739680222
0.454364544193375
0.449596663356376
0.449516693976860
0.441246106412049
0.442342020551075
0.441099095357006
0.439851352745367
0.442110462481398
0.438515865915750
0.443115091990097
0.440692960900241
0.440616730273383
0.434687279032612
0.429930784442566
0.429857933246936
0.418077552914016
0.422690469408009
0.420280803435384
0.421379635860328
0.424815986291083
0.424738601878830
0.426999848231899
0.429262154659431
0.428013462225573
0.425592061500800
0.420828043299236
0.420757451375632
0.417185607847497
0.414790884833259
0.417088796272042
0.415876561770438
0.417007832223917
0.420489143924757
0.422806789644738
0.421612232085057
0.419247346585489
0.420397811304928
0.419208163949840
0.420367546553673
0.416851753842243
0.414510475750092
0.415686717294903
0.416859435209496
0.419198180375321
0.419195843183676
0.418020660032024
0.419189113898983
0.418018483651879
0.420358322260289
0.416843235564028
0.412164253322880
0.412175348126337
0.408677780335962
0.411039739068878
0.412230784236572
0.415762855030520
0.416957343055363
0.418154511114823
0.419337673279865
0.421676398000968
0.420494461259044
0.419299470263427
0.416931280021895
0.415731722091632
0.412178849479397
0.415640815867550
0.419103281233243
0.415541062256339
0.421341123899980
0.422456426936904
0.424731865780473
0.422312810052960
0.422230086987621
0.419798378588008
0.416201506473909
0.418465912974650
0.416046713751921
0.418313889591901
0.415894898665059
0.416984543812749
0.421589295894749
0.423853968801000
0.428449721224862
0.430693260043205
0.428247923567207
0.425793804631629
0.420997972933445
0.423227178940504
0.420766833186814
0.419472706263568
0.424038011173833
0.425096755542353
0.428499393760284
0.426053183828640
0.425946065373863
0.424665520680202
0.422217692815176
0.419771903572076
0.413810939194621
0.412530623713081
0.417103184583687
0.408795116551074
0.411026615735334
0.416773312297686
0.419007424536600
0.420071610001257
0.423468744204146
0.421002180402112
0.418531099284483
0.418394308448306
0.419425803958577
0.416942832471403
0.417965212506726
0.415469198468233
0.416487372900241
0.418678176148748
0.422038339401844
0.425399011411302
0.425241885928435
0.423908082984797
0.419060576602531
0.417722659843389
0.419908048969054
0.417423184984966
0.418456089779907
0.417156974336460
0.419372910445078
0.422761982819455
0.423819026104632
0.426055179278482
0.427117338814649
0.429347185414236
0.429237364325019
0.424443608272044
0.423170288117660
0.420735069947044
0.420643740820598
0.420556896888745
0.418125298591423
0.418030688716509
0.420278337221390
0.427207503308884
0.424771942457081
0.427021406250557
0.424586103927855
0.419808224185462
0.420891480914333
0.416128331614013
0.419564536958949
0.419494440424172
0.421766213926230
0.426379485431914
0.427484994164814
0.432106160558808
0.435547594580003
0.436637827383687
0.436552539172877
0.434117558017744
0.435194974030637
0.429248045098824
0.425635843249632
0.429043033132903
0.430110568868374
0.439375076585885
0.445126249519694
0.450878033052104
0.453111786831102
0.450656276123024
0.447028196341094
0.441055261655378
0.435088904928717
0.433813595483401
0.427857305472231
0.435955352252139
0.437028972175075
0.445127075678406
0.449717622800501
0.451970455829805
0.449535236521333
0.441241122212929
0.432945656561427
0.421134338103254
0.412838300211095
0.404545663448170
0.399763762878443
0.399664835903475
0.397226791604933
0.400644786240180
0.404064779050999
0.403975049605023
0.407397607156211
0.407307807266113
0.407219844246471
0.403620871942827
0.401194002623303
0.403451798683136
0.399856941981775
0.403288057651893
0.403208724867841
0.406643629152399
0.407738699892479
0.410006427109047
0.413443235172122
0.412194909419310
0.413287943243903
0.413209009437275
0.410789387437309
0.406029219800907
0.407122046375666
0.410555952712558
0.411650453208480
0.411576306028320
0.416186406661067
0.414944402840875
0.416043697845013
0.417142615129912
0.414730365493216
0.413489604616204
0.409908624498434
0.407499989946044
0.402750754754082
0.398002697326644
0.394426613167049
0.390851692855558
0.393132026610545
0.393072191896864
0.396525095442493
0.398807593630540
0.395237078570978
0.392837971302626
0.393952464158531
0.404434509792568
0.427795929311246
0.466378430473901
0.515499173782826
0.573987356890972
0.630135197086379
0.667551880436131
0.683895592583869
0.681507895540639
0.648681209046160
0.587757041768237
0.504589318018561
0.408544287711491
0.314842013169913
0.238702620997038
0.201200146069848
0.190626823359461
0.209324212338309
0.239730672813046
0.270134049971640
0.301704682103577
0.321566090950194
0.339083227726182
0.353087838293445
0.362409244016457
0.372898916409993
0.378703427068275
0.391533700483029
0.402023430999488
0.409000569346468
0.415978172187354
0.418270557092678
0.428756061030884
0.432216414430668
0.433334104674155
0.437965976609349
0.437917044891867
0.440210099201481
0.440162899428188
0.444798778521418
0.448263703825401
0.451729886981496
0.456367835775903
0.459833113506449
0.460954888547273
0.459734374877535
0.456170844888602
0.461974121912252
0.460753459164151
0.459531892080002
0.462992981016642
0.464115153984561
0.474606308119633
0.475732874067066
0.475691135574730
0.480332804729222
0.483803939948003
0.483764828378573
0.480215056413600
0.483689982140263
0.481311166087982
0.480103813407699
0.482409118512080
0.480033145804481
0.485854551541886
0.492847655023105
0.497500486659497
0.500981145254762
0.503289280945235
0.503255658356321
0.502050278612574
0.499674474509627
0.501982243507055
0.501947565508488
0.501912257270553
0.504220188354573
0.507700593665329
0.512352520488099
0.514664207984908
0.518146269157636
0.520457031312102
0.521597817121696
0.520397461830673
0.522711347632544
0.521515109998886
0.520320103149586
0.516785244623221
0.521446987062039
0.530792951474934
0.538969961992428
0.533099384646434
0.538936760575567
0.540091197264715
0.540075749204091
0.541231597564223
0.541218318546784
0.538865240798422
0.541196172998843
0.538845169960014
0.538836366895476
0.547023516021104
0.545845416394444
0.549351229750883
0.550516422196794
0.552853366909309
0.549337191035483
0.551675697739484
0.550503420303845
0.549332728437384
0.552846393511475
0.549336842447697
0.551682145118748
0.552857609381417
0.557546755207247
0.550529379014430
0.555219287240259
0.554054699792243
0.556402585732030
0.550554688159405
0.547049109338008
0.538861228767367
0.536527054255402
0.537705242713615
0.535372238856836
0.533040333799001
0.540075337848973
0.536574293805010
0.529560929743633
0.534255282953999
0.528413249971140
0.522571605350861
0.514390091893037
0.509722786825276
0.508568913135686
0.502733413252629
0.502752679940864
0.499260442476494
0.501623563552402
0.500475710071762
0.493474143114022
0.495838957622511
0.485325889090142
0.481837859210546
0.480692628695763
0.474865598339333
0.471380761934151
0.466725986209515
0.469096524584342
0.466784513627075
0.466814848421304
0.466845902957900
0.463365297832819
0.466910043256782
0.461089214233735
0.452927461587930
0.452962169210432
0.449485586065117
0.453034507856616
0.447218153545202
0.447256389097280
0.449636860468653
0.450847437430652
0.448546511296176
0.447417087570394
0.450971511901975
0.452185131528970
0.446374815056432
0.446419218483184
0.442952125730980
0.441827351666380
0.443044918813013
0.443092485480478
0.445482375245496
0.446702277091795
0.447922963978869
0.446802868108206
0.445683545562762
0.443394221863382
0.439934894277606
0.438818411439221
0.433020162464215
0.431906121149861
0.429622551164196
0.429681489362963
0.432082924748194
0.435656364256674
0.434547868834751
0.438123289132571
0.435845641379298
0.435910515341396
0.430122386687532
0.430189329290909
0.429086705455407
0.426814301829734
0.424542969143515
0.426955486226793
0.431710247847351
0.434124358012924
0.431856165935840
0.436613591849735
0.436688881180358
0.435594207058774
0.433329600373999
0.432236942587765
0.432316241277923
0.433567359872220
0.435990381856631
0.431389636622962
0.437326768575797
0.440923413107714
0.437496411590661
0.439915679631999
0.441155688066408
0.438878884609606
0.438936647443070
0.436650854789226
0.432021673330655
0.429727421692006
0.432110541027401
0.433323270214565
0.434536185514053
0.438088348068993
0.439298037998144
0.440501748671286
0.440528264920644
0.441722702844618
0.440571490654972
0.438251380013303
0.438275590032304
0.434786446449087
0.437151903506552
0.437173773337232
0.438364072543816
0.443067253358403
0.443087302357701
0.446613851665397
0.446622112343045
0.443114494179934
0.445455734455386
0.438429838248481
0.438427936060948
0.438422070755046
0.433730022005326
0.434895132301812
0.441917648582005
0.446599760692435
0.444260079468150
0.446601898687322
0.448941975426082
0.445430191015539
0.441919564802343
0.438406674380434
0.438404056301871
0.440742048620075
0.441907550616876
0.444245214322156
0.440730579112877
0.446581619247775
0.448920515838187
0.446570970807615
0.447727684645540
0.443027591865127
0.443006073612424
0.444153512218253
0.441787008575799
0.444099198957948
0.440553606982024
0.442862750658115
0.442831196056545
0.446310848028323
0.450961308133746
0.447412804104481
0.447372845784985
0.441477917768740
0.442605753390417
0.440225482960736
0.437850349756789
0.440159999491416
0.437790059823077
0.437762304799643
0.442418113716363
0.443565184663427
0.445886123485707
0.444692398583754
0.448179478572207
0.445812737318245
0.443444775303332
0.442250487940573
0.439888677733314
0.437527069063033
0.439849757184242
0.437487317713289
0.442146914815690
0.445635369251929
0.446780934898639
0.447926376362192
0.450242649716589
0.449045179609438
0.446675766721591
0.445479546987987
0.445456626030228
0.445434660885073
0.445414567401677
0.447735444392922
0.450055572275444
0.452376942921002
0.455869797153184
0.455845129849154
0.455814911458139
0.458123089564919
0.455743361139429
0.454533489098592
0.452152038095196
0.450937149657852
0.449718776113771
0.447329653911366
0.450794271540054
0.454257475419534
0.455378500857492
0.460008162714461
0.456438459127912
0.463403951124238
0.456317578814129
0.460941082054837
0.464396554159108
0.459656576659784
0.466625714408568
0.463056966680416
0.468853343684247
0.464113951069233
0.455863010469522
0.460487233419896
0.454571035755831
0.453336254391852
0.448586413626304
0.456715449016993
0.457820356361429
0.460094204442853
0.461196123546213
0.462302943764062
0.464585799634218
0.459846908121895
0.453941848805504
0.448037366814738
0.440962594541358
0.435062639680987
0.429165985141739
0.420927603669259
0.423226258732039
0.418501553513571
0.418460503223881
0.421935453458871
0.426585103427231
0.431236570206898
0.432378291902442
0.434688372168330
0.436995378141020
0.434619169798459
0.433412195211375
0.428693827016868
0.427488967158717
0.422770447087674
0.426246547816026
0.427384746211535
0.429697432086818
0.434353565324762
0.434329607462445
0.434305414314733
0.436622339553618
0.431916724106856
0.430724850393533
0.429531081194207
0.427164601686649
0.425968020554071
0.427111241338544
0.428255243243127
0.429400082996725
0.434056052918010
0.436369760393306
0.436342687963692
0.436316254256604
0.432777721608367
0.426898186896412
0.417505409591968
0.412794741774224
0.409254817760081
0.406885290392712
0.412714059280826
0.411521422664278
0.411501031818315
0.410312270064984
0.405611927583016
0.404424548386827
0.405581022100624
0.414934916788429
0.438337451561815
0.468763969554326
0.517923338709369
0.564740922007346
0.616243406217914
0.653698502877023
0.672421574852653
0.671242309859337
0.638447521618385
0.576378050244855
0.481524437594619
0.376129840901264
0.285954109694076
0.223875932144774
0.200429451940718
0.206248934896193
0.236655733161073
0.274088129202343
0.306836442605574
0.340755604053341
0.364134366043929
0.382826314360378
0.392150876360327
0.396790323155294
0.403772441007809
0.404902331123724
0.410714873690863
0.410674003128302
0.416486212358575
0.423468222092139
0.426938385451767
0.440945766114952
0.442071510372905
0.449047965864440
0.448998003218009
0.444262331773552
0.448892573387756
0.453522659094377
0.453467626629751
0.454581861725903
0.454528509331367
0.467357151404391
0.470821161252880
0.471946498693919
0.475413112762832
0.480050130140331
0.478835629127696
0.477622895823783
0.477579991796664
0.476365506096038
0.477492722557951
0.476277922130176
0.475065058209410
0.483220521489357
0.485522551575730
0.486654830877102
0.485442766617529
0.485398167768087
0.487694048541904
0.486475410140163
0.489939542693487
0.488720388108427
0.487499138669605
0.490959265170071
0.488567152042699
0.490859817886350
0.497835856448932
0.498959106720096
0.498910184649964
0.498859692854695
0.502321886145677
0.502271538003590
0.503398992390483
0.502192873008808
0.500990947978644
0.509161595529736
0.513822581087473
0.517315292933889
0.526668226898321
0.525489866314300
0.526652863004306
0.532498870215284
0.527810323093132
0.524293626713132
0.523124193131428
0.527814768704148
0.527825008165184
0.527839150360065
0.532536052282126
0.532548781420798
0.534904883895006
0.537261552679573
0.538449796008825
0.537299082465695
0.540832084006719
0.539682961629046
0.538539320103441
0.537401290503043
0.535096192493037
0.536308293431803
0.538692938188702
0.538737608371306
0.545811049150220
0.541180161319372
0.541229442034309
0.543617002207281
0.542491503061246
0.547217411038867
0.541408159205884
0.542625550958484
0.539158095777635
0.534518955907217
0.542761175428610
0.536956697196192
0.542861334781109
0.545255830515446
0.541795374513296
0.544187517477280
0.537214427652327
0.534924664319445
0.534981887128234
0.526849827684849
0.528087109944098
0.526987492187095
0.524719245357681
0.521282165958486
0.520191211937727
0.523787458823040
0.518016987749360
0.513416775889538
0.511159531485638
0.503048691281315
0.498453885193498
0.492692256509782
0.486931975457224
0.482344601014998
0.476584480716494
0.474334027249920
0.474424951199104
0.473343665367558
0.464067254159957
0.462986729038592
0.459563065758540
0.450284230953862
0.450374260647658
0.442271507589025
0.443535871965472
0.440118970004423
0.434359447645031
0.436794045308878
0.438058734969818
0.440494378106008
0.439419740332629
0.438347554104027
0.439617967494865
0.436206895301567
0.435138384325477
0.428216883855464
0.425980213786418
0.421403586343540
0.423850955661152
0.422785249205881
0.422890587369115
0.427678720550773
0.428955732744318
0.430234061433581
0.429170904341021
0.425766594635580
0.425879434291726
0.420143504570937
0.420264738245621
0.418048930950301
0.415834795508437
0.420646905218050
0.416096914148066
0.420916726687291
0.419883525638234
0.417680545235153
0.415479564239255
0.407426084925856
0.408742555952767
0.401867498333437
0.402019386919946
0.402174123094659
0.404669890561759
0.408335438135245
0.406148126639392
0.408643968878051
0.412312240140806
0.410128428698107
0.405603190852590
0.405761509980773
0.405923347302917
0.402576406280534
0.401573296023818
0.402914781751051
0.401915518521369
0.405600019095620
0.408116142164021
0.405951057200507
0.408464375880323
0.407460176016573
0.407624302357429
0.408954884316036
0.405602238201070
0.408103470685106
0.404747006630100
0.409582938750328
0.408566043818342
0.408720781989189
0.414728704400097
0.412541395276365
0.412692283105618
0.412839519206937
0.410643998109121
0.407275621955811
0.402739543227873
0.404061130553260
0.400700271727335
0.400853894966572
0.399836398268747
0.401159862490166
0.403656065874149
0.404982942473083
0.408648100311280
0.411139135639352
0.404262544451176
0.405578793813855
0.401041966859344
0.400018493287586
0.400164124939200
0.401479607851576
0.401627408720782
0.405290729390462
0.406614316185795
0.410282353462705
0.412779530820745
0.419959661526805
0.416605085342725
0.414422997783884
0.408728343014008
0.403033606060368
0.406705586628342
0.403352977736972
0.403514629402534
0.404849105676658
0.409696718944330
0.412204023959888
0.412367267441896
0.417210634662031
0.412686903594014
0.410502757105823
0.410660090660652
0.408475937980165
0.408631486106382
0.408785546120286
0.411282820409610
0.410269422345690
0.413939494781506
0.419952249953675
0.413085211869895
0.417924531138592
0.412227240900799
0.410042124957645
0.410203815518059
0.404517616693797
0.404688374156315
0.404863818896955
0.405041268664101
0.411074468479582
0.408916917287624
0.411446696371302
0.410463807704129
0.415334519753308
0.415523804081053
0.413372145482304
0.413566177889236
0.407910767891141
0.409281883440445
0.408314156566173
0.410858449372090
0.413401892997185
0.415946564801386
0.422003894072585
0.423379653499459
0.421244789007656
0.421451782076042
0.414634665595042
0.416016804616448
0.409207410000461
0.410595958923453
0.408475514108205
0.408697712106078
0.413603962135930
0.416171424402945
0.416399610644153
0.418966781085451
0.422701886205029
0.425265310038443
0.421972604238861
0.422193226793270
0.420073392823370
0.417951836501022
0.419341504990044
0.419562124556418
0.422125882649254
0.424690224309618
0.427255788538178
0.427478530012663
0.426529046508080
0.422067508919326
0.423459540454504
0.427196710046342
0.430938001704712
0.428827236865266
0.439597990050261
0.442174388516555
0.443580932592100
0.447331911085912
0.441719184023082
0.443130166059366
0.436344728617577
0.433072089400828
0.426286729682038
0.423015868390110
0.415064244771295
0.415308437026441
0.419065913987800
0.426323346792642
0.433566816152614
0.437290635854685
0.429295428548675
0.424808459003568
0.416805348246580
0.408791228969118
0.406621237720194
0.403280996251636
0.403453377360303
0.401280155621180
0.401446803558312
0.403945078773516
0.404091142933948
0.407744776166610
0.407879300550174
0.409186234098087
0.409325360046571
0.405949587889664
0.407256819400481
0.405047928493005
0.401664001327814
0.405304479865648
0.401919260690284
0.403207546099863
0.405656781108136
0.408099782919527
0.412875906992372
0.411795686628914
0.414225699226151
0.416648776652277
0.415553870394934
0.414464290402856
0.408697448381284
0.408786059289488
0.408879234360021
0.408969434209083
0.416081078055298
0.420854385753162
0.423287901997610
0.423375403300883
0.425800324041475
0.421198554238472
0.422447231912495
0.416673318190429
0.409731068134625
0.405128985189236
0.402868367817013
0.402940035555387
0.410025835168651
0.415935628872839
0.421837502324689
0.421882018161501
0.421923415995029
0.416103170218918
0.412617570609827
0.413816181558301
0.422040580105203
0.448995177522981
0.489998819545163
0.548557866380875
0.611793326124758
0.666831201221034
0.699620794655873
0.710170526969106
0.684432414189059
0.622401514716102
0.524080386655446
0.410539240725599
0.293485593666370
0.211559334287058
0.172955250548164
0.170640903395394
0.198762412706730
0.238590780623336
0.279587156442736
0.310049589737972
0.328807809603948
0.342882126401887
0.348761598199776
0.359320647403806
0.366363002459112
0.371062437577075
0.380442356007878
0.390991887110805
0.406223597405559
0.410915528787987
0.416775748848551
0.420296711089782
0.423820121219223
0.428514640087268
0.427356829687218
0.428538876570827
0.433231334709741
0.436753744349847
0.441446948139994
0.446131563022270
0.455490139583021
0.460160001023023
0.460138744686016
0.465968957194942
0.464772262661082
0.463568364448434
0.460016755813617
0.463488867242696
0.464618230520312
0.469256825992911
0.470381162883989
0.471499042806715
0.476122453396013
0.478400648432864
0.480674091535921
0.481778666888988
0.482886080912297
0.487504684594825
0.481587091296283
0.483862545253922
0.486135309090016
0.483725592309782
0.487169755595412
0.489437104579982
0.490527574619825
0.499809889616685
0.502062444366400
0.505485081770664
0.511248876570747
0.511154958709225
0.511058197843199
0.509799139719006
0.513232447823641
0.514328861821385
0.516603907574163
0.520050278124177
0.528180120017205
0.532804549549323
0.532751454418158
0.532697071453185
0.533812541334510
0.529075776548602
0.530193031171364
0.530145672704664
0.533617304798824
0.534749921041470
0.531203448271757
0.537018218555442
0.541656021870039
0.541609933497578
0.539218914530277
0.543853568000740
0.544977333167280
0.543756512943201
0.543704337968151
0.541316655200469
0.547130578133994
0.551776544093246
0.550573504795716
0.552881758901274
0.555188607133183
0.559840272505531
0.559810795596100
0.562118156997314
0.557396005541753
0.559695900663922
0.557308288118871
0.557262828175951
0.557218085068261
0.554828425682993
0.554777927648791
0.561752868552158
0.565215992398470
0.567507926596413
0.572141692719474
0.570918801498078
0.572034500945959
0.564953828581084
0.564896163639100
0.562501609377170
0.556600187611914
0.554213030299798
0.551829639195487
0.555300695463490
0.556430519631516
0.554051576356525
0.545821693225646
0.542272589017113
0.543404267320658
0.537511127965046
0.533958104752559
0.533919957249514
0.525689200688841
0.523312142145202
0.519765030323671
0.517379873042050
0.518496927797185
0.514925885754842
0.511347006231904
0.510106614487986
0.510034180146249
0.506441593625941
0.495817357549591
0.493389559753101
0.485108778590167
0.485020904421873
0.482590814072142
0.481324648495611
0.483563423451287
0.482287003128437
0.483347780617557
0.484409593141753
0.479619504250486
0.478340044429011
0.473548157351626
0.473437104124959
0.466298813177148
0.465014344761505
0.466070916996670
0.463608861959127
0.464652682227950
0.469204863522073
0.466726931058485
0.466589097165871
0.468791619507826
0.468648154014262
0.464988790737106
0.463675883554368
0.457685238950806
0.455208922457565
0.457420048969424
0.458459061399258
0.458325783385307
0.461708253642867
0.459239176675282
0.462621390938334
0.457805823052964
0.454160427475753
0.451684092794838
0.450381159926651
0.453764272689196
0.447781099377039
0.447652780222331
0.446347818385777
0.447377603945352
0.451916925976446
0.449426794591243
0.452789061024371
0.446783906374201
0.446628004373841
0.444126559069487
0.439285635621612
0.443813048418418
0.441315388025679
0.442331145646493
0.444514293496182
0.445522962138258
0.447702155563275
0.440513867123569
0.445036266778739
0.447220834980798
0.442381781288648
0.441057412034172
0.438563039800881
0.438410865991483
0.434749011606370
0.434601889497719
0.434452891578671
0.433131215043015
0.437663493890897
0.441024040931694
0.440874420981866
0.443068809399255
0.442921743925142
0.441604753097482
0.436774672316294
0.436626557594024
0.436478632812207
0.433988843884391
0.438523853160259
0.441888337301298
0.446423188624763
0.447445398744977
0.447298696952929
0.447153961183879
0.445839441260777
0.441014155187921
0.440872134023796
0.443071736207663
0.441760269318259
0.440449768864831
0.444989234751364
0.443670553918924
0.447032818919219
0.445708448094535
0.445554444832845
0.446570925329126
0.442901222310883
0.441570591548368
0.441411351693616
0.438911052163539
0.438751661500076
0.436250781966573
0.438430452395614
0.438265819254313
0.440441846703060
0.441445581474508
0.437768357835351
0.439947705780411
0.442127541949167
0.437284282452462
0.437123988067906
0.433451065455546
0.434462777431728
0.434304907472018
0.435315663871263
0.436324241082589
0.437332053741493
0.444192162876030
0.441686916972059
0.440353488780890
0.441360761811743
0.436513852406516
0.436348582778490
0.435010740239643
0.437184384231242
0.435844459331675
0.430991194190517
0.434332412877698
0.438842970599109
0.437498230100195
0.439665962693089
0.443004655951298
0.441659669500091
0.439143718686560
0.438968081670068
0.435278772865286
0.432759732996631
0.434923044548276
0.435914963117113
0.442760253487481
0.444921668408918
0.444740822548528
0.441047035867360
0.439694172728490
0.437169908198788
0.431132706140810
0.433289879385661
0.430762842450303
0.428234936782901
0.429218369358674
0.427859514802048
0.434695387523732
0.438017977069223
0.442510446347738
0.439979284145605
0.440961648955255
0.439602784550760
0.434732461481109
0.436886505564846
0.435527877048749
0.434169987055640
0.432812618157276
0.434966805329583
0.438291037611944
0.440444261937849
0.440255403460104
0.444750205031499
0.442220978479232
0.443203953531796
0.443016279827494
0.443998166118587
0.446149410365082
0.447129290150813
0.450449741686134
0.452599048728215
0.455918827821635
0.460408419469888
0.457872505171830
0.460020129942528
0.455143539836310
0.452608416059190
0.454756631217612
0.449879495754585
0.448513941969693
0.451831466634092
0.455148756216951
0.461972712621845
0.464107418757589
0.469750709139986
0.469534806836752
0.466975324520317
0.466755469763849
0.457164406225578
0.452252050917812
0.443826593055280
0.442424882326601
0.441020819962723
0.441956775932819
0.447571238374774
0.456693169896730
0.461129264183432
0.460878769230575
0.454774874353524
0.448672032299222
0.433201564912915
0.423584725051505
0.415136533565065
0.410198343009573
0.404088988913292
0.405003524689376
0.405913535781158
0.406818951830376
0.411233651648961
0.414473574536397
0.416541398726214
0.418608065387548
0.418329887162209
0.423902886713360
0.421281382166168
0.417490152800712
0.418381775929857
0.416932569575043
0.420164568161367
0.419882258094432
0.421941711132828
0.429854749414744
0.427228613251830
0.429283532891237
0.428995435213372
0.424022347729275
0.426073778306275
0.422271289154360
0.421979916767721
0.419346185132714
0.421391486164506
0.424603058844119
0.419616537047776
0.421651070960401
0.423683624184180
0.425714320291854
0.427741491114566
0.422740784917411
0.424764308297698
0.419762735736227
0.417101129975139
0.413267835870696
0.409431541712425
0.406762871349737
0.406434187798166
0.408445011488227
0.409287024082819
0.413643912220207
0.408634897730245
0.407139734871652
0.404473379659155
0.400635720925834
0.397970386183412
0.402330923740297
0.420738516104345
0.460217852548159
0.506721118373353
0.569613709082629
0.630165851543312
0.671986895264412
0.692733320858021
0.673673331625968
0.618317098415152
0.521981113310117
0.406911649439019
0.303548264989382
0.227111901005180
0.191652004169888
0.192484470314263
0.216730920953939
0.250344405336024
0.281617219393460
0.311719107498690
0.328942904850969
0.343823972187176
0.357532978171080
0.368900469835918
0.382609199621521
0.390459980900405
0.401818809393110
0.408491754584470
0.410477777189970
0.418316351002011
0.416787448145923
0.421108999647184
0.421915255466773
0.422720761167031
0.423525404901067
0.420816062706021
0.429813336268259
0.425928963396609
0.437261454182805
0.443908937934621
0.448212503630842
0.454858234337417
0.462675763689127
0.462297114658330
0.461918594647663
0.459197215267267
0.462328288926613
0.459605531583776
0.462736432930740
0.464693668390540
0.466647992000495
0.469771287620173
0.469379786915452
0.472500106760071
0.475620050057073
0.475225771268687
0.477171595569060
0.473280180105945
0.474090214371916
0.474910443674020
0.474575319586469
0.478928012956978
0.480943530757499
0.485315124752590
0.485016219929911
0.489400617451255
0.491444117893023
0.486468598867994
0.493203700206858
0.490585830259120
0.489152881101398
0.490068368848088
0.495676402769831
0.500110158937807
0.499855433858248
0.511311216865629
0.512228993040740
0.516664139200156
0.518763444716540
0.518520597702002
0.517107637045580
0.512195397127203
0.513150349660770
0.515284273652614
0.513917214802055
0.520748145515257
0.526410317885211
0.529739994161012
0.529564494053120
0.534066497837055
0.532708563469949
0.527836929174268
0.532326701849504
0.533308442537655
0.528440865432313
0.531765688013013
0.528064575572363
0.531393598443392
0.533556895384148
0.536893867972773
0.539064474796415
0.537721009518116
0.541058518730432
0.535031895278903
0.536030572547563
0.537041173545418
0.534552869023889
0.535583915166558
0.535454502331160
0.535329836240563
0.537551049944482
0.538611558678521
0.542022632976456
0.539579196654872
0.537135132830068
0.535865240683375
0.533425624148581
0.528652745091516
0.522717919343213
0.521469543862393
0.522567730915999
0.524828156802517
0.528248861517932
0.529325075259314
0.529223509453593
0.527950672739648
0.519653062777332
0.513689915143637
0.510062370222290
0.504099135438270
0.498141689410723
0.491014123519112
0.483890013282235
0.486126563185378
0.481332116149323
0.475367226986146
0.477595955811459
0.477488571772123
0.471534096710805
0.463239798222974
0.454949421547857
0.454855616151207
0.452420989727503
0.451161218255802
0.453417291076970
0.446302657933397
0.449720306496058
0.447282846093655
0.449525230540391
0.450599083453939
0.442309336713900
0.443383971407306
0.438604090354838
0.438519458032097
0.432593848596821
0.429017554328428
0.430135678817358
0.432427464469424
0.432380326553580
0.435855556899827
0.433485353436295
0.436969934778246
0.431089583276894
0.429896342553877
0.426363855760247
0.426352635932410
0.424009293683696
0.418158477228918
0.419338776599043
0.424027753916258
0.419345467670094
0.422859568982419
0.424030121927308
0.429886668934460
0.426380326504523
0.425213814767781
0.421704992025778
0.418204476186295
0.415883131099070
0.413566419524878
0.415939701686958
0.413630120394915
0.416003442502245
0.419552494624658
0.418421904008245
0.414940846982659
0.418474846807316
0.412637752848473
0.412646216519979
0.416167006077250
0.410321755628645
0.413835608787371
0.413831547835101
0.413828899723083
0.416168773893958
0.418507103264777
0.414991523528326
0.416152701755325
0.421990128700279
0.410263293881798
0.410240069298792
0.412564592675752
0.405530440246508
0.407863932807398
0.405518718766355
0.407855864772268
0.410191773889131
0.410190084883403
0.414874408088644
0.411356991764434
0.412516273133972
0.413672881730164
0.410141397555755
0.410123970881994
0.408937909690130
0.410090278523209
0.410070218637372
0.412396685441754
0.413557409607189
0.417062644635171
0.419401807758619
0.418228237611770
0.421737266062169
0.415883667205068
0.415886551883489
0.418230672635335
0.413550091320079
0.413553366197194
0.418239873444489
0.417075526120827
0.418255941902815
0.421779212897470
0.424133699736731
0.424142082979271
0.421803556612054
0.422975619183612
0.418290160200922
0.415945980498360
0.414772546328544
0.412424931352465
0.411245338096067
0.408897590974076
0.412406341231858
0.413573945123999
0.420597149421376
0.425276433269394
0.420586839189791
0.418239224204976
0.415891098251100
0.412382966129582
0.415911748585462
0.413592934276165
0.414796095783561
0.413661596072763
0.420726145983740
0.420775593885224
0.423175148039805
0.425574001645590
0.425630730052260
0.421007734909742
0.416385962482199
0.418797299617186
0.414193046229167
0.414275712339829
0.414363933189109
0.416792724874632
0.423902515124722
0.428673063447616
0.425248541014801
0.427680967922202
0.427775262645553
0.427869916300793
0.424453153432363
0.422214997304683
0.422326410619849
0.422442878327145
0.421395390926906
0.423862263269367
0.427501633017202
0.432317375366818
0.428942231212833
0.429074242862683
0.431542111439366
0.428154243518805
0.421249512593332
0.421371469657565
0.423837207602395
0.416933275881937
0.418222580736839
0.421856852034998
0.421981908542307
0.425620451824384
0.429261413976297
0.431729058418561
0.430681476670922
0.426122097047830
0.423903622542900
0.425204750324207
0.426514235281837
0.423144332930902
0.426805127124650
0.429297340486251
0.430620645060669
0.435462130759808
0.437967163373281
0.439299516389210
0.439459144778696
0.436107412408960
0.437438033989572
0.435260742220469
0.438942120308741
0.439111965955955
0.433429895895100
0.437108108909979
0.440779139661800
0.444447527225881
0.445769307469360
0.448260398204201
0.455433342825199
0.455576349700085
0.459227016834441
0.458197051582118
0.454827969397220
0.449116591971512
0.445747713254197
0.443545137417487
0.441337596455508
0.443812199583300
0.443942971588414
0.441733875891555
0.439527227182691
0.438490924459814
0.444480043526204
0.451639224498707
0.450602003287160
0.451907158102624
0.440334269043823
0.429928095152261
0.426542361508026
0.424325161085570
0.418592199959783
0.418712777066306
0.418833195749653
0.414267803689498
0.412041921009945
0.409821924632806
0.411120631894396
0.411251653819820
0.407875632137388
0.413865908299181
0.416343750766966
0.417655282446144
0.422482617623780
0.415600836861839
0.422767250447190
0.419397260677617
0.420709871861956
0.422026126986337
0.413980102124613
0.416472097333012
0.416624545884799
0.419114343800332
0.425111385111431
0.425253122379577
0.430074725788779
0.430212926606865
0.431521863532893
0.430486096129217
0.425935415188388
0.428412385965444
0.425038495117390
0.426348392546900
0.426489561227700
0.425457893369409
0.427936199222308
0.425732196648244
0.421186504649959
0.423668810312143
0.417959706168366
0.413423109628935
0.405377003146471
0.405527907331486
0.400997152485230
0.402323370209447
0.404823250307744
0.403810004615885
0.405137479686056
0.400611932426308
0.398427913440097
0.400929623105303
0.409288078131528
0.434038253089662
0.465814560608469
0.516323516734510
0.571515468763094
0.619683711457812
0.654973958933022
0.672703398905024
0.668189009574681
0.633234844841951
0.563157858332471
0.470838360278071
0.360959538603594
0.269814681118566
0.207941242125035
0.183533520213074
0.196591437013998
0.223700406839023
0.256664743600552
0.295480164187131
0.328438581023014
0.353200281695187
0.368593285054924
0.388669617637233
0.398209269329808
0.403063691490621
0.407916498509460
0.405745754000465
0.408259120032088
0.411943242306812
0.414457187050781
0.423994076143163
0.426504405994270
0.439551462332771
0.443231476491660
0.446913834165453
0.452940547622904
0.451943480161349
0.453289776979334
0.447611734636986
0.445446206561746
0.450307092262291
0.451657102856420
0.454176426958143
0.460206584493991
0.466236467403453
0.468753016900461
0.472441464350380
0.474960401000441
0.472795839485162
0.474143695497002
0.469646101515146
0.467499170513102
0.470040890421709
0.471419757535539
0.479826036426198
0.483551810477417
0.489626503567151
0.489853739276086
0.488911246189173
0.491482375501945
0.489373775848763
0.488438133109322
0.486338505151505
0.488929165996533
0.493865375505509
0.492952826005360
0.501405318501845
0.506343424346842
0.506600229244882
0.516223238833317
0.515312255387327
0.517916921404112
0.514667911492313
0.517273620863001
0.518715256419151
0.516651365326544
0.520445754539521
0.519562915440209
0.525706408958918
0.527168204936488
0.529805533186827
0.537129808601043
0.536257144214533
0.537724389652813
0.535679529483314
0.538316573342087
0.542127092763904
0.540086528484807
0.541557877938498
0.543029567283215
0.542162715956705
0.542469463811352
0.548632101339956
0.555968111486184
0.552767219656033
0.553078594023252
0.554562373752565
0.552534858544607
0.552854820788556
0.549669008163402
0.547657779658287
0.546822558249774
0.551844007516830
0.558038835558471
0.558384876680151
0.563418657649480
0.560257507136662
0.564121530556201
0.569158550845894
0.563659793754526
0.562848468376749
0.563212471057641
0.557724784953999
0.558093895802794
0.556117868660919
0.557649677893447
0.554497443939411
0.549000777411086
0.555212185854678
0.548545523965098
0.546559076842998
0.539887183644338
0.536730837189377
0.530065324367938
0.524571353407287
0.524933342083896
0.520610027533267
0.519796481313656
0.518983512425569
0.520511650209169
0.520872132638098
0.515382498288581
0.509894168065549
0.503237435252168
0.497752448111535
0.492268232923201
0.490298774036040
0.488331452278878
0.480508500880589
0.479708360899102
0.481249604773846
0.482789686590019
0.483160505917138
0.474166799238304
0.475709613732419
0.472569429351161
0.463581408436675
0.465136776774395
0.458500717310578
0.458894979746537
0.460461731183011
0.459688519600418
0.460091127772974
0.459327255548539
0.460905746706664
0.460143671323741
0.458213048749643
0.449259209291823
0.447334544291177
0.452439279250908
0.449351192288516
0.452120345075369
0.451375775701307
0.450629162492246
0.452224859969562
0.450307599538045
0.451904336126762
0.451161387024520
0.446905598798979
0.448503640461965
0.444251973638468
0.441175297105961
0.441613405166133
0.438542682815656
0.438984682189598
0.439426856765758
0.441042392756092
0.446172144844341
0.445423336744605
0.449330497128635
0.446197767389221
0.444212919677314
0.441050167987645
0.439051547417085
0.438202156498638
0.437334032308738
0.441148435339222
0.440278459946556
0.444083046212002
0.445541614614638
0.449322049294770
0.449569151387405
0.445122765574137
0.441833036374810
0.437377464768428
0.436441908667301
0.437843664369798
0.434563586146202
0.442983628396578
0.440858030062255
0.445757752070374
0.444802383411011
0.446169148593698
0.449857676770844
0.441826153480696
0.439631599390975
0.440945405206613
0.438743686837700
0.442382309267985
0.438985522612363
0.446133621028373
0.446265590426029
0.448740822333310
0.448881233175062
0.447844276432280
0.449141891735835
0.443418980346803
0.441209948957346
0.443675750116636
0.440280004734857
0.441562836731937
0.440497378896186
0.439434157191415
0.444227631016467
0.444334653735754
0.447952776956620
0.446870044764264
0.445767369513385
0.446995675190490
0.442354693502990
0.448243462615408
0.443588607917420
0.444772598898110
0.443601548041268
0.441260321275581
0.444773584778336
0.444769240364543
0.448275374377742
0.449427512450689
0.449395643488889
0.447017016765655
0.441118416592134
0.443427613178650
0.441068941733046
0.441055918039912
0.441052987414976
0.438708968533528
0.446901845065343
0.448080272635432
0.449267226926996
0.449274515015644
0.449273028456230
0.449270325543309
0.445749950938399
0.446920636362845
0.444588084565604
0.442254795992632
0.444607061314669
0.443438689091629
0.445772343379433
0.444590846701566
0.442232511994929
0.446896918572387
0.446876880974637
0.443338223655254
0.439794115974866
0.437427158931886
0.436237683889788
0.432708202046487
0.436207947287034
0.435021001283402
0.437342253773011
0.440836734311114
0.438477994896214
0.441955000054029
0.444241955688881
0.440663330424772
0.437067783395932
0.436980061738265
0.435717428602559
0.429756642398341
0.430807809674371
0.437711270117293
0.439929458551353
0.443312264176492
0.445520624259675
0.445374005023680
0.445213229477054
0.436849590433118
0.439013175099361
0.435327996706805
0.436333100687036
0.437336547546849
0.433659562179279
0.435831946695608
0.435657607080503
0.441339430393489
0.439997440953662
0.439813724718245
0.444300485810284
0.440584714080372
0.442712418985882
0.440156388623107
0.439941950634314
0.439719949608412
0.435980244212550
0.440448722811385
0.439077069286896
0.442395365482303
0.443383999408354
0.443201554877863
0.447701649633253
0.446357965323882
0.445022143229915
0.441342409107236
0.434148638451221
0.437493824186624
0.433814085172429
0.437167999851920
0.445214757629184
0.448581918951889
0.453125648843159
0.456489217075285
0.458670648862989
0.459678901066724
0.460680391027325
0.455828784575400
0.450978682278691
0.443780917546697
0.435407811090685
0.431726726623171
0.431567050345766
0.438435639034594
0.445311213606111
0.447500835850551
0.454370112560050
0.454218986069958
0.451728407127079
0.452742590775614
0.443212121575571
0.434847800475790
0.425305519884983
0.420446627802478
0.417929727860961
0.415407275659289
0.416393053861810
0.415037424368421
0.413681532119789
0.408811902728442
0.405112553257245
0.404920796293199
0.401211710141312
0.403354293748257
0.403152096370552
0.406468566401233
0.413304880857012
0.414289543005512
0.415279204920007
0.413927398660621
0.413746099834508
0.413569460080862
0.412225754263665
0.414390231864809
0.409525915533735
0.409343795831354
0.409158855177068
0.406635501220359
0.412311158446354
0.410961215189113
0.411953256195189
0.411758402712109
0.415057594327897
0.416005684823148
0.411085422409681
0.413183794715649
0.412935000169248
0.410330306946403
0.410054305149294
0.410949780749366
0.413016542409350
0.411565682313673
0.413625033635761
0.418013227772881
0.416533905006518
0.410365557057153
0.400676403459815
0.395671479793805
0.393010883936369
0.393858903678001
0.398218389426826
0.400231500412026
0.402239263913241
0.401904621348224
0.400397532963395
0.401220186353767
0.406713863782369
0.425078348475192
0.449286383409643
0.486369665417643
0.528133205215724
0.573400539871102
0.621002419554398
0.660416109833437
0.691642374287380
0.706480134356380
0.700250210019017
0.672942990707210
0.611679630791163
0.510614566702805
0.390819959074442
0.281557008982756
0.200387807181303
0.160193777052880
0.163314620900049
0.194537502152117
0.240984389651731
0.281576269006505
0.316314873734837
0.341676261368526
0.361171170528453
0.374806396007784
0.380236994348821
0.386834808022092
0.387575653997763
0.391819913557541
0.394885574112921
0.400295233433997
0.404536625373912
0.414630135197544
0.420041297344218
0.419591750690389
0.424988731578824
0.425701085242156
0.424068648906523
0.427146044763214
0.425570774205044
0.428693814241093
0.431840939897518
0.434996383707323
0.441671813644117
0.443687842890247
0.450407945365365
0.444246816488403
0.449791255554618
0.450660435089228
0.450361229414320
0.450083205474640
0.447486474752288
0.450752974155095
0.450521069925039
0.458480149700164
0.459407117244459
0.467363534179942
0.475319339543751
0.472745459029511
0.477204585085719
0.475809470682446
0.472074117335665
0.468359077203981
0.471689527355552
0.471520469059820
0.474881444981919
0.479417705440297
0.482786897305817
0.486170500585425
0.486053349815127
0.489434741114189
0.488117974495668
0.487966915370885
0.488974620813554
0.492329167084859
0.489835678007753
0.490845535722735
0.497703626621645
0.498716712239873
0.503250267776867
0.504274658076914
0.512330176340163
0.514525454406394
0.514371955642271
0.514220149452406
0.515237788533022
0.513933541522698
0.510310307822697
0.516063685188250
0.513638172051444
0.514731390899448
0.524025632939660
0.521628281446627
0.527440607453310
0.523882551279747
0.528515706907478
0.526127692017212
0.521397118359637
0.526045450039582
0.522512037816196
0.521323421893807
0.521311961398828
0.528313463848757
0.534129527909661
0.537600122906052
0.537548958128746
0.545691755015721
0.542125855093350
0.540891539160282
0.538477838610817
0.537243250186377
0.537187781174859
0.530108459750918
0.534741769558895
0.530001089357274
0.531105417744641
0.533381108784223
0.536825146281657
0.536763042174867
0.529684237642339
0.528460936007681
0.522558781534168
0.516657907241662
0.518953252675518
0.511886999786572
0.508337093601203
0.510634926772846
0.507072391346158
0.505849433927378
0.505792669074709
0.503396642434532
0.498661823904531
0.496265704139701
0.492697451884937
0.489146703962194
0.489127033425343
0.483264417122021
0.480930341049221
0.479771037376431
0.478615342210762
0.478644883830365
0.478686595002800
0.478728978735617
0.476431019589024
0.470626154386206
0.468336454736082
0.460205663286642
0.455600752784437
0.449831696166064
0.452267106767304
0.452355465504250
0.445411627263950
0.451347494437896
0.454938728933047
0.452679937296534
0.446913319085106
0.445827084050180
0.443568722716551
0.434297522005116
0.436746058405429
0.431005636802159
0.428787306988743
0.434764563464795
0.439570535450449
0.442041932897499
0.441005828506807
0.445802473151192
0.440039158413668
0.431921939741905
0.429638919489394
0.426182096439713
0.427405782464455
0.425099531319306
0.422778713045264
0.423971549287813
0.422823329313324
0.424011171917454
0.424026259188091
0.425196243477217
0.421666092120819
0.420469977449609
0.418092151468512
0.419236203742983
0.416880247322246
0.414524266996350
0.413344945093527
0.414503095475436
0.417997721973161
0.421497444918730
0.422658663574309
0.423804245833738
0.421421580111562
0.420201418839737
0.417797494571886
0.416564866118189
0.412992036768261
0.414093005363570
0.415187615834328
0.418632915840728
0.420916897033018
0.420863565993475
0.424330941697963
0.426624363700681
0.421889664425066
0.419502500957724
0.414777522654777
0.415902760188639
0.410000259765466
0.405267642246963
0.406386397388968
0.409851288637365
0.413321207858117
0.419132964595327
0.419092801764523
0.420210792500289
0.418972751952053
0.418899167972421
0.417644250151362
0.416386156410487
0.415125435031828
0.413854605563585
0.412575087902593
0.412469852043104
0.414709665241878
0.416947945180114
0.420358434131344
0.421419596307105
0.422472317881889
0.420011241944434
0.418717366670961
0.420953886147214
0.418528310658338
0.416112082590825
0.423077879843400
0.423024032187290
0.426486969082256
0.426453348696143
0.426433613783483
0.426409609956520
0.426381543576395
0.428698784724360
0.425161631484454
0.422808803908671
0.420470744893031
0.414624830057349
0.415811441096566
0.419335287466791
0.424023436170433
0.424030338856294
0.424035469134750
0.428726840849885
0.422885023090602
0.420553673114676
0.419392246533426
0.420584602142186
0.417106438471465
0.417147563173741
0.412515881160526
0.418422456805343
0.426671262373108
0.426732619028216
0.429141556212333
0.431537243209466
0.431577047280229
0.431610209051079
0.429289848284591
0.426970411668991
0.426993851393300
0.427007392698152
0.421159595666124
0.428194135929680
0.425865666584287
0.432902657756647
0.427062871343460
0.430581183193860
0.431749105451326
0.429402702856041
0.429393497155116
0.430566241490772
0.427069187645569
0.428259425715400
0.428287600513474
0.429487759716916
0.433030027893596
0.435409865899205
0.440138136292966
0.436664045358770
0.435524487582368
0.435554432361012
0.433238140795786
0.433268890034600
0.426281174277137
0.427487248231748
0.425181635607004
0.429896481685697
0.427581099179817
0.433459507649241
0.433480751521646
0.433499636191650
0.438199472890629
0.435870498119186
0.433537468825545
0.435889874836724
0.433561658776636
0.437086698187433
0.432417232582418
0.438281350818519
0.435946195264007
0.441806056907515
0.445322902738061
0.446497201666514
0.450012456741914
0.450013779144218
0.446501374345901
0.448841905502291
0.450010608900930
0.450007443539394
0.441807819060065
0.449996226638083
0.452327735985778
0.449974038741511
0.455813175074783
0.459309150458941
0.463974358278254
0.467466293612380
0.463931265120958
0.466255449450382
0.460390152023763
0.459210457644917
0.456864634251643
0.453348037089274
0.451002027483539
0.445147755112473
0.448662892844012
0.448663739168899
0.449833559372131
0.455686655493206
0.461538723932021
0.466223246786441
0.465057432528698
0.456867456873644
0.454532877526726
0.451023703069446
0.447509896486713
0.441653174599103
0.435793514801551
0.429933328720314
0.428755954965769
0.428746443721220
0.421709820369389
0.421700423965865
0.420522871158174
0.419345803052367
0.419341238225303
0.419334761067657
0.425179994156562
0.422830437400151
0.425163816640953
0.425154852454924
0.426316124767337
0.421622666632315
0.426294481539964
0.421600151327126
0.425101308061124
0.423918815791142
0.429760652441577
0.427406093669613
0.434416685507987
0.434401983853587
0.436728022729488
0.435541097731006
0.435524349192804
0.437848300181752
0.433146767176513
0.430787350177940
0.433111695581437
0.431923726067929
0.430736149824262
0.431889656260423
0.434213419315939
0.431854314205899
0.435349160991344
0.434160093225059
0.436482573509068
0.429438357825690
0.427076564251884
0.420031689834032
0.412986884837683
0.405941624194084
0.405920731914399
0.408239884707706
0.408215794764032
0.412873810207528
0.409335016431971
0.410478533009777
0.420987503327126
0.437348975735685
0.473612376079792
0.516900204833408
0.578920226429100
0.633914883384555
0.671347428284110
0.695900168457756
0.692352929593817
0.657193971196948
0.586910768681834
0.487357769531926
0.380779851624195
0.281225929295773
0.212111716436633
0.178120120041541
0.172226441790989
0.194430931813521
0.222488779651234
0.251716223368111
0.276259353638973
0.296118455155998
0.317147244852329
0.327638389997737
0.349836685561522
0.361497001417769
0.377839535579609
0.389506991939986
0.398841796341698
0.408181394631694
0.411674483702607
0.421023636581755
0.423350128411360
0.429195915409742
0.432706181289315
0.439728542591903
0.442067767581832
0.443238721687523
0.449093868103546
0.453784512485280
0.454969544131144
0.458499194940833
0.457350070553095
0.462052949783112
0.467923802160077
0.471454218195962
0.474983943730858
0.477345064485587
0.477367125111648
0.478559435560217
0.477410257222971
0.477437932043549
0.477471806187578
0.476338605307801
0.477552189012963
0.478766738332558
0.488177430995717
0.488226016278526
0.490619340401842
0.495351013642724
0.495396131318017
0.496610939614196
0.490798266797042
0.496695074086132
0.495569055745093
0.493270295232099
0.499165883933721
0.495697567743932
0.502768346631399
0.507498566199442
0.511059764406859
0.516961170971309
0.513494808197102
0.513541347903636
0.517100055558790
0.517151856376721
0.514868270255089
0.517270770583999
0.522019433248237
0.523257612449219
0.524497424282275
0.532766371704718
0.532843820307354
0.538774299412457
0.538850027647564
0.537756109916862
0.533149820825711
0.537913299901963
0.537997482008191
0.536911964387181
0.541682232150314
0.544106742206500
0.550038465607972
0.554797747590266
0.549016528558016
0.556113217497178
0.557355550753978
0.552740403637124
0.552805267118311
0.554043220354742
0.555283456591768
0.551840496693966
0.554252616754686
0.556661819810704
0.557896969346482
0.561473440691248
0.560365583713365
0.559259679115240
0.558156328527216
0.553540952930140
0.554780727016578
0.553679014180371
0.550235633809411
0.547964364435717
0.549206514693888
0.551616970815788
0.557537178565950
0.558773250072016
0.557665827095810
0.551875788613989
0.550769513313788
0.549661911976120
0.549724290899039
0.543937863119856
0.540498427323684
0.535891260399366
0.527776440010678
0.527857871733146
0.527939992915501
0.526855425637728
0.528115771434598
0.523522079757074
0.520099184965301
0.515506795135943
0.507402564326619
0.499301885233654
0.495888092748296
0.495988285736031
0.489066202309264
0.484483433985605
0.483410114100387
0.483507430501013
0.481261701484743
0.476675148058578
0.477943409734420
0.471014847153847
0.465256114974671
0.463012919896537
0.457260634985502
0.459705302284783
0.455127846263008
0.454062215391803
0.457678975808128
0.457785047353849
0.459062853542360
0.454482392677953
0.453409595165176
0.449992580496207
0.445400638227089
0.449003602662793
0.444410666189289
0.444497219733248
0.445751595302179
0.442322865049542
0.444747823733773
0.448342306704204
0.444911511465559
0.446160506615781
0.450918294972308
0.443966578140124
0.442866345309389
0.442938995211802
0.440672775209553
0.437235805004170
0.437312484898703
0.432705116906655
0.435121258068403
0.441050839225089
0.437614846635396
0.438858614336235
0.437757428486160
0.435483680702619
0.430865588894237
0.429759948663073
0.422800719429316
0.426376494091737
0.422926250314961
0.425331306435204
0.427737789837640
0.426632511790973
0.433723970665651
0.429106792782076
0.430342588306262
0.429237636584673
0.424620736680034
0.424686132958079
0.420067723422455
0.420132034422307
0.423708031233962
0.421430695232016
0.425007867238131
0.423901763047233
0.427478883172025
0.428711788000352
0.426429357370813
0.428828553799848
0.423030022436972
0.427767624166370
0.423138244948411
0.420848222373797
0.423239382677821
0.424460105480071
0.430364266927173
0.432755494281153
0.435146666165775
0.437536054579737
0.434069645298270
0.431773400210413
0.431817697207333
0.431865877110252
0.431918574687005
0.428460873264142
0.427348110856006
0.426236223128855
0.432149746668260
0.435725047748895
0.433449350525884
0.435855642478979
0.432406982332454
0.433642071041191
0.433706083220123
0.430260590053979
0.431501299583166
0.430401266201265
0.433985905175333
0.432886143295501
0.436467704922821
0.440049402533122
0.441288830972997
0.440187164567659
0.440256887409313
0.436813549344193
0.438052830392026
0.431099185406906
0.437026680802552
0.433589258069090
0.434837009021388
0.433743179270777
0.436161517113761
0.438581373434831
0.439831513742935
0.439907732287938
0.442322133083268
0.435368598736542
0.437778403687020
0.430821942726575
0.428548625786779
0.429785218495593
0.429849147645177
0.434596716290362
0.432320020456907
0.438238315815374
0.435961261878386
0.436023710522083
0.439596282563458
0.437314234697951
0.432689384387986
0.433920593996943
0.431642111366280
0.432876592056290
0.430600368563956
0.433007217221475
0.433072329077243
0.433138977034304
0.432036056309141
0.433272867392232
0.438020164425059
0.436912986968602
0.434633694169542
0.435867627766644
0.431248724058558
0.433653806338735
0.432546382102562
0.437294717666467
0.438532615144982
0.439771808202283
0.442183622092691
0.442254142398833
0.444666460716666
0.442397198020254
0.440129166432282
0.442544640640370
0.436765175734648
0.436840327099383
0.436916043933743
0.436993209623637
0.441754999108464
0.439493091115059
0.443086256747379
0.437312357377927
0.442074371785586
0.437470225923986
0.437548669245634
0.435286112964692
0.433024201842472
0.434274223235640
0.429670178428560
0.435604633433886
0.441540602543602
0.443965086676557
0.447561614459601
0.447645821069167
0.444217629675962
0.446644231702331
0.443217577968462
0.450327882012547
0.445730419603933
0.444645413474990
0.447072700275664
0.444817462781982
0.449587479618671
0.450845302831418
0.457957274745754
0.456874209918207
0.458133062116077
0.461733844808527
0.458310363380752
0.463082507627739
0.458488612174921
0.452724238408242
0.453984776360623
0.445880197495220
0.449484584467100
0.443723506577767
0.440304980598061
0.441570096833038
0.446348050280628
0.447614628663523
0.454735961359083
0.453662077173020
0.450246870833870
0.443319823602382
0.436393113684407
0.427125691708983
0.424883812933200
0.421471663565731
0.416889361269489
0.419329968372720
0.419426986295668
0.417181615400024
0.414934711331920
0.415029107436000
0.412781751941306
0.408191366425365
0.412965951079356
0.413058027922545
0.415492224337395
0.422609321669154
0.425043531466982
0.427476493312175
0.429908082162963
0.426485472931317
0.426574528617896
0.424322838574798
0.424413753347346
0.422163195402448
0.418742377979360
0.423516885252746
0.422437313095019
0.424870581791764
0.424962675535136
0.423882868146689
0.422801901803442
0.419378861082903
0.417125695436946
0.416043459382177
0.416132221246133
0.417391135513109
0.413966546427623
0.416397344403888
0.421171290020534
0.420092213518852
0.422526853001851
0.421449247206674
0.420371690500376
0.413441411398329
0.404170494609798
0.400753320416795
0.398506841104196
0.399772974666959
0.402209929937888
0.402306325151467
0.398891450725517
0.393135432493973
0.390892383930779
0.392160725113645
0.405135683922483
0.425135070255552
0.461524642119518
0.502597400656685
0.543670302457211
0.591767214369615
0.634009738216023
0.670399258917081
0.684544903521219
0.684641538300514
0.656640177850193
0.586490470455150
0.489412448442159
0.368919232670215
0.265987794520658
0.197010836322998
0.166671740562557
0.173798712081897
0.203172198722949
0.238400463468915
0.271288019165763
0.300665025950564
0.328872893358138
0.341860697268141
0.356019332842958
0.366666395443822
0.378484619332903
0.386792119144971
0.392759782730526
0.399899044212652
0.401185537172625
0.405984523151491
0.414295826193140
0.420266240351991
0.425066257711992
0.433379357806889
0.437010158407321
0.437129001035876
0.434906742300014
0.437369119080617
0.433979172439487
0.437614990391922
0.443593742141148
0.448402367437664
0.453211599241481
0.459192814366717
0.461662748620668
0.462961206177121
0.465429639068875
0.463214878110755
0.459828771864225
0.459955588700695
0.463595368985556
0.462551660867137
0.461507795474991
0.458123268857991
0.466447360609926
0.472430371866722
0.472560210870337
0.475031409059783
0.473990016910946
0.470607449102061
0.475420485976388
0.475551965925699
0.473343639843426
0.473477800767839
0.478296410974038
0.477261814597657
0.482081728504819
0.489244516977405
0.487042280983320
0.490693887217779
0.489662333807105
0.490972805318593
0.489941889415270
0.483058169398796
0.486712593630463
0.489196688106959
0.492852216265706
0.495336793941294
0.504845701626244
0.509671707109064
0.513326883037047
0.518153096753659
0.517125713598382
0.516098224045531
0.518583011360737
0.516385496044395
0.520042681460666
0.514334069744109
0.520333859345703
0.525162878493874
0.526479517290754
0.527796582006545
0.527943147540297
0.531602642104831
0.536433590450112
0.531898735945636
0.534389060905026
0.532196710122302
0.526492440163959
0.524301046493723
0.529134843989256
0.535139517275773
0.532948830869843
0.535441530438627
0.533251286994960
0.533403045805346
0.535896826745403
0.530195400510198
0.538543595725064
0.536356083571895
0.535340708656499
0.536667824729010
0.534483824877606
0.536983521790554
0.537142231152209
0.541985182262612
0.543316817385329
0.545819618784671
0.543639726916675
0.537948153919489
0.540452530139069
0.538274841626133
0.530244352486533
0.528068460793003
0.524722632046120
0.524889236602559
0.522714282636551
0.522881326401333
0.520707043337917
0.520874890719671
0.518701793217158
0.507162721831541
0.503819404419048
0.500477080391281
0.495964980998914
0.490282822467466
0.486943106215099
0.491799224800477
0.489631040947914
0.485122049539510
0.486467581172620
0.477275042980615
0.471593629622783
0.458887068587741
0.457887309012824
0.451033765442146
0.444180353750197
0.445521535059398
0.445691286505906
0.443519918025298
0.446032042496116
0.446202578727544
0.446373323545816
0.443031008828519
0.440858665721075
0.437515385683666
0.428317830181506
0.430828967405053
0.428658097741148
0.426487532303980
0.427829981371310
0.428001707108069
0.431685754002583
0.433028883421314
0.436714075044123
0.436886231544471
0.432374556130617
0.431374987039759
0.425691777759223
0.421179686233778
0.421351098225638
0.421522214780201
0.425205558072715
0.427719090624612
0.430233617361384
0.428065658967189
0.429410943279156
0.426073242544216
0.425077200227854
0.421740355965593
0.414891780158936
0.411555607502328
0.405877991681467
0.404883756804682
0.405060455014947
0.406408585438626
0.413611289073840
0.413789680659332
0.412797764863265
0.414146885283221
0.411983028880149
0.414502192084983
0.408825538265728
0.405490559431687
0.404497293192915
0.398820570895327
0.401339037815935
0.401516531042533
0.408719268561396
0.413580688822721
0.413759440090527
0.416279559424340
0.414116338110105
0.416636469638728
0.412132038305736
0.408799838766121
0.406640060053277
0.405651964100539
0.409348287971948
0.411874479791267
0.412059726495744
0.415758619275556
0.417117155867845
0.418475740319723
0.418663607046052
0.411827367510821
0.414357632498313
0.413376739558465
0.415909429375098
0.411418055952880
0.409269050817720
0.409461665558468
0.413166543059848
0.419213422581639
0.418235862546070
0.421941932730406
0.419794679894512
0.412964534553167
0.409646998709472
0.413355215989880
0.414722991727070
0.411408421091445
0.411607152612506
0.414147849662207
0.414347367026382
0.420401598972888
0.422944206176660
0.426657069689259
0.424515456144358
0.423544521238737
0.423743925438043
0.418089823691199
0.413606904955731
0.407952901210514
0.409323408322725
0.416548369556356
0.414407644479627
0.423974968084243
0.425347289819179
0.426719418015359
0.428091306886243
0.424780285525633
0.423810866252720
0.420500924276453
0.420704481750712
0.422079404940620
0.418772094966551
0.424831403962315
0.429720295474246
0.433439262957490
0.434817436342095
0.432683162259455
0.432890320356624
0.429585389689999
0.428622040059295
0.428830139534089
0.423185069988711
0.422223328271701
0.422432728426577
0.424970972707329
0.427495106156165
0.428840567468518
0.431345088264522
0.430332922176875
0.433999767972462
0.428289110084561
0.424910019175589
0.422701274161980
0.418150261201308
0.420619250801612
0.423085754829104
0.429054290698545
0.425645624020833
0.425743829879295
0.431688547209624
0.431780772675316
0.434217276718822
0.431967761194023
0.428547109888781
0.429805233388786
0.426375439479396
0.428798948521373
0.431221040042528
0.431291493347842
0.432522436626464
0.437259028308275
0.438474388611109
0.435003835217480
0.432701619952511
0.430392057792179
0.430418015689697
0.432789528748728
0.430482354102263
0.432858894857729
0.435238766854965
0.435273402877558
0.441158024138298
0.445873894611028
0.447078101425832
0.450619007349456
0.449472259650375
0.449493568562519
0.447169354227675
0.446016898298397
0.447207302015541
0.444883256679431
0.447241367622432
0.450760698150111
0.455440080888810
0.457772114091113
0.458925054489961
0.462415436638155
0.461218922548048
0.464697365962987
0.464656126599448
0.463444191768045
0.463403127268638
0.455163601692527
0.452776751266959
0.446870795455605
0.440957651802932
0.442066211706130
0.444341309597975
0.450133496990876
0.455931806483686
0.454706426984130
0.460509400432891
0.454604102638525
0.451039595403800
0.442795800917717
0.433384320791097
0.426309415956352
0.423912668894280
0.425026836580743
0.421454558833185
0.426080483203538
0.426026586507537
0.424800663086172
0.421233392496875
0.418832478228196
0.419938579624399
0.416359541540419
0.417460177194765
0.424412976517632
0.426681200794433
0.431287405448088
0.433548826994258
0.436983014297984
0.436907012477065
0.433318528803781
0.430902004595228
0.429653865872581
0.428403090875549
0.429494130542151
0.428243092573921
0.432836591483644
0.433907856054442
0.437314365591695
0.438370551580711
0.437082191177048
0.440474122897351
0.435662693764150
0.435527536602289
0.435390823832365
0.435252292245961
0.436280801857490
0.437306760469633
0.435983999792785
0.439336833826296
0.442685342895018
0.437832974641942
0.432982076065313
0.428133603248024
0.420941888624063
0.419604382450493
0.420605429370331
0.419261613804181
0.419088713366516
0.415402958305774
0.415222786565169
0.423231242665862
0.435918577772016
0.472015678597530
0.517477768449099
0.587525258373925
0.658739061617714
0.712387759131447
0.756676920565219
0.772874752369792
0.766831125526690
0.735036551634321
0.671630493645676
0.575442013703380
0.459355567972994
0.342102372157639
0.243579663072874
0.196569543055746
0.184683332460608
0.205578163464405
0.241697683174215
0.275480663886252
0.305752723746806
0.330173611982583
0.351076659009848
0.368460769720537
0.381160071591644
0.393855305006246
0.403038180247835
0.411050643518156
0.413205480209493
0.418869734755815
0.424538479195525
0.424357926294194
0.431203604252712
0.436881934396549
0.442558316733578
0.450573970518644
0.451566908378150
0.453731391266656
0.459403221474756
0.463899197426812
0.466050416823303
0.468196905168285
0.468001458419046
0.465464174453598
0.468776963202586
0.477940668055094
0.480079389710516
0.483388335901403
0.487866752058074
0.484148992659807
0.488623352140005
0.487240341339133
0.490538667467583
0.487980719188262
0.486596690998623
0.484045719475656
0.481495504015383
0.484801532517110
0.485765543552506
0.490241214182697
0.491206722684805
0.498027741924312
0.502504239496384
0.499953111157168
0.502084013976060
0.498358835401392
0.498147263581821
0.501449547722036
0.502409171064471
0.504539259491434
0.505489430161873
0.512283163652360
0.519071282920064
0.521168047259617
0.523261013480458
0.523008851561056
0.523919253796029
0.528334552728710
0.523383518136126
0.525456936278481
0.527527000394889
0.527253868892176
0.536339619810195
0.537222098652927
0.542784010284013
0.543657761876884
0.544531502431556
0.539552224110807
0.543936598225754
0.545978351752488
0.543333874123962
0.543027548899671
0.538037065276427
0.538898992635043
0.544437179010919
0.546456035355975
0.549640975421802
0.549307514408568
0.550142478095458
0.550975327344446
0.544778388684246
0.547943349462262
0.548770172516538
0.542576170786841
0.542236819347569
0.546583473721179
0.552098606429372
0.552928169185292
0.558442887150969
0.555763221731618
0.556592454119963
0.555076929699456
0.552388999728356
0.554381538116891
0.550521504891951
0.544321514070279
0.545145045042362
0.545968377346166
0.546785243585871
0.544082448942810
0.549571438440526
0.549201054977199
0.549998991625407
0.547282398771108
0.537535796177874
0.533638323532760
0.529741646341727
0.527016577879127
0.521948470847781
0.518051024841320
0.515320140427622
0.512584750160920
0.509848011337959
0.507108995492344
0.503216588172728
0.500514711239084
0.491968841379056
0.486951009073645
0.486621483782227
0.478101290398068
0.471938020568943
0.471642171467235
0.466661478882904
0.468704052415864
0.469580904927135
0.469288522077616
0.466668331849043
0.464062967893740
0.457951356065810
0.453019585687107
0.446913787718398
0.447827430361086
0.444060869429035
0.444976714433402
0.447068004055739
0.452676978706173
0.448919237373986
0.448674460182021
0.448442909198558
0.445883359906112
0.442161298836581
0.437279957109831
0.435913670718252
0.431037245974016
0.433194781179758
0.433018172947356
0.430491105192110
0.433808233433353
0.435951268886165
0.436915752694230
0.437883643288805
0.434172193074239
0.431625726686599
0.430246399872442
0.428872709116377
0.423991839142553
0.422625301691932
0.423604421951722
0.419896330875490
0.420866693740770
0.421838101150333
0.419296286017901
0.419108738401286
0.420106552161083
0.418769527476429
0.416272428914467
0.418462552633868
0.418314708251718
0.414664989754528
0.413366023366123
0.414405923054790
0.418955428777502
0.421165639698467
0.421033652918260
0.425592985603820
0.417282632853770
0.410145166440197
0.413548833685754
0.411090496734107
0.408622071320837
0.408492328268152
0.413039093519753
0.416413948838281
0.416275711336398
0.419642882661003
0.420662517869457
0.424029087816862
0.421547145468874
0.415553212120542
0.411903885183172
0.412932219747420
0.411612810615494
0.409122790977168
0.417167902926480
0.419363224885062
0.421563848764029
0.424936205301886
0.424799005564769
0.427004038316535
0.425697074767733
0.426734671481495
0.425433293896662
0.424127551953028
0.425158776462873
0.425017707232876
0.423702563710151
0.425901168586806
0.426930734619158
0.431470526883875
0.430155356765616
0.430022482542679
0.431072723322645
0.425105445505471
0.426173491676103
0.422560911306892
0.420121333764732
0.418862014035404
0.416439863782465
0.423384233042526
0.426816935466060
0.429082320619440
0.431349443782380
0.430112608649632
0.432396980900076
0.427660961114583
0.427613917719186
0.426392226790095
0.422823749597426
0.423938968170832
0.421539603995720
0.426167311500778
0.427285527529341
0.428401732923626
0.430687629447673
0.428298148789605
0.431770379011224
0.430563657301447
0.428192508868911
0.430504381010520
0.426961841540857
0.431619230084075
0.428084225383811
0.431560193572783
0.436192091529032
0.432620505015204
0.431377704399052
0.434816029122430
0.434740310823902
0.429970083590491
0.422848870275799
0.423923840637440
0.420315907642984
0.422558245501999
0.424799215163139
0.425859113397640
0.430420314579407
0.430293475229109
0.432501064902028
0.433544023715335
0.429911812745126
0.428621109638761
0.427334185376897
0.427215347568901
0.422410066499227
0.421120382004524
0.422174188795540
0.424388629624151
0.430105081133238
0.431133041047538
0.432152572803618
0.433172413552454
0.431851549407416
0.431695416156577
0.425681261654709
0.426697534762138
0.423036661111029
0.422890766239374
0.427433266050173
0.427290542608242
0.429487080961501
0.431687365456027
0.432719182645905
0.434919381848781
0.434776015048776
0.435802790183032
0.429803240154126
0.429660433482260
0.429520767733508
0.428210448084831
0.429242878856914
0.431437925295039
0.437135956337928
0.441659089069284
0.439150721467736
0.443664920030599
0.438811155041161
0.439804730885729
0.443134227999968
0.440612015662730
0.439262750105195
0.439083212729847
0.436562970943287
0.442233122209265
0.439702357467502
0.439512140341148
0.442831895697272
0.442651029090847
0.442483783852066
0.441151812476745
0.441000867917359
0.442023920831921
0.443049827679143
0.439402846248955
0.446301849629220
0.452027288235284
0.446042303960508
0.445913622429600
0.444613817026209
0.437468905183610
0.432675119774602
0.426713450004772
0.430123090291783
0.433529880602113
0.434590864715142
0.436823804350381
0.436713998783409
0.441289316797604
0.442354756499544
0.434052732957532
0.428091678864406
0.422138556114115
0.417364376982289
0.410253144817851
0.411344032729032
0.407752604503641
0.408844696193225
0.409941962930152
0.408701570467203
0.413306465344386
0.414389733657127
0.415468685253972
0.417710646388287
0.415270093127915
0.418684278602278
0.413896601821480
0.413787199576869
0.410167909867920
0.405379911356605
0.408786856446259
0.407511833586147
0.414426985106120
0.414311744207554
0.415365983350700
0.415246616917314
0.412792943735113
0.416201791178436
0.411417912949244
0.408981244003695
0.408886913140581
0.408792943179578
0.409875168045130
0.407449525933928
0.408531731924494
0.415463276103567
0.416540113182961
0.422297029210045
0.421032847592743
0.422114248544241
0.413828369573916
0.407884472784616
0.403114886845742
0.391323932794300
0.388902110454665
0.386483967253639
0.382895746691803
0.394528341755564
0.399139152007522
0.402581492169730
0.401342689229378
0.394252213795867
0.384822212026931
0.378906570221504
0.380018492295590
0.394011913579197
0.423228001283898
0.472350097390173
0.532008009664355
0.591664360411965
0.640784232733867
0.677024962825873
0.691022582830247
0.687460366384240
0.658140776707768
0.603064272602726
0.519892299363686
0.420332618841986
0.311408751899385
0.231757086818186
0.182546097154815
0.174312641499093
0.193009150798403
0.225756565903839
0.257335052302907
0.281890948105615
0.308789985450784
0.328666076616030
0.346202608837418
0.357887227244924
0.370744587203509
0.381262427095444
0.390610728670355
0.398789446696426
0.404628250188614
0.408126939186159
0.412798316379418
0.411617776018776
0.412780364790122
0.412773866352620
0.413940428887406
0.417450848587362
0.415109494310373
0.425648964930407
0.425653297215887
0.433854924218610
0.444400318301504
0.442069300853800
0.446764851700500
0.450291564207270
0.450307957632329
0.449155544534025
0.448005354310858
0.451540520200584
0.444540789269583
0.455104882449787
0.457470871479990
0.461004474875467
0.466878787519567
0.465726192720598
0.470427986260521
0.468105731149234
0.466952221617623
0.468138733309555
0.470498024120016
0.472859227199872
0.472879353497549
0.474071551289126
0.477603732593027
0.483475661351092
0.490518612390458
0.485853345963002
0.484703176031026
0.487068604576025
0.485922924936647
0.492974854797210
0.489490530855729
0.487177567121382
0.488379070108660
0.493094751997338
0.496638353914848
0.502522147604737
0.507235133845783
0.508434963597598
0.509636207682923
0.509668237487489
0.508529276387572
0.506219818326180
0.503914142076813
0.507466283997487
0.509850285571065
0.509896327653204
0.520480515881487
0.518187243841769
0.521751028078829
0.524146742129613
0.527714066158800
0.530111569998999
0.526656773409708
0.524373927889765
0.526777082385872
0.518646256962645
0.523395835469865
0.524635351106791
0.530557241038221
0.530624117242302
0.535374711318338
0.540125044865862
0.537851947203849
0.540263317818203
0.539162197465073
0.539231990345187
0.539304527676246
0.537038271413194
0.535944481259722
0.539536133794809
0.541957411796046
0.542037406876160
0.544460718360829
0.546885357940680
0.549312408826452
0.544717484070243
0.540124430860849
0.540216715905966
0.540310966501965
0.533382479753937
0.534651827933940
0.531240429578135
0.533683960040950
0.534957731533343
0.535062382853485
0.533997593873175
0.529422729226226
0.530704096990324
0.524962438182962
0.520393415152502
0.519338400336592
0.510089534142256
0.504354844013588
0.497451156606667
0.496403095375173
0.501210687078590
0.497824569675960
0.494440181237875
0.489887190105677
0.488848740942011
0.484299959252872
0.475070191433027
0.476379287093319
0.470665574479009
0.471978617241862
0.468610594148506
0.467584658021874
0.467729914132192
0.465534711813956
0.465681736755565
0.467001147173849
0.465980652063897
0.461448628083340
0.454576031720102
0.450046980635983
0.444349113545426
0.444506715528874
0.439983027130104
0.438972655190963
0.439133986245598
0.441638397221621
0.442973361272476
0.444310732882236
0.442138345581546
0.439967878220592
0.431945765127152
0.436803954798772
0.429956082355250
0.430135115799394
0.432657854424438
0.434010966316309
0.437706775323780
0.437891824848392
0.440419755763685
0.437095860219419
0.439627966283475
0.436307738351614
0.431818453597647
0.434355744783792
0.429870245310355
0.425386651910872
0.429100447594383
0.428132844457071
0.430679290286358
0.433227610382136
0.429923873875278
0.433646710337901
0.428005265682424
0.425878024431904
0.423752684093541
0.426312359288138
0.426532386870262
0.420900461718325
0.424636693640257
0.426032990000250
0.425089328611320
0.430001310212118
0.425548744974627
0.423439603108660
0.428357008885472
0.420397577361675
0.424147673033564
0.423216637572350
0.421116802353731
0.421360422238411
0.423947553675450
0.427707247332452
0.426785609954044
0.431719770567952
0.430801920888697
0.431056916019713
0.433655569682933
0.429231550880606
0.433005024940550
0.426243482974456
0.421825471873903
0.422092641174154
0.421191095273190
0.430828429658224
0.431101434392361
0.432547189273746
0.433994877418779
0.436615412538023
0.442750364447097
0.438350309832610
0.439806165230076
0.437751650064567
0.436869860540728
0.433648523860506
0.431599954537341
0.438919613963330
0.442728960894579
0.444198749156620
0.444499763342290
0.445973651365375
0.445108089163839
0.443073816945232
0.442212416284869
0.441353055179293
0.436983401721146
0.439640503726668
0.436445802837819
0.437919606963472
0.438206322081387
0.439655299562240
0.444603237275133
0.440181151171240
0.439267915806695
0.439512744184292
0.440917333323146
0.443493632943082
0.440216600581067
0.438106013602612
0.440676917344525
0.443236362228089
0.449295825596761
0.448325249001271
0.449688439225730
0.452226059765129
0.452427489488954
0.450285446319333
0.449315588889565
0.453025011053498
0.449705333182431
0.446386757221111
0.451263630090308
0.449104671209790
0.455129737317158
0.451781811091439
0.457790476945014
0.453260415730226
0.456924541032194
0.452385636644833
0.452523957496697
0.447985727314315
0.444625329051252
0.438925760047691
0.444939720858608
0.447438357489228
0.449933736710612
0.452433231889878
0.451422817954489
0.455091183206067
0.451730952303300
0.451881331406244
0.448516137615130
0.442812241276943
0.441794705307247
0.439605447781741
0.446782900419570
0.443413079374820
0.447056194278363
0.447181407940562
0.448468679114698
0.457947956299424
0.458057990489283
0.455817977021233
0.452399702626009
0.452495550666183
0.452593203594605
0.448005677355861
0.450443003548624
0.447019689317304
0.450613770823238
0.450693532784444
0.451940489477141
0.456707948925226
0.453289897767226
0.451045887463313
0.454662570224992
0.452426650667764
0.453704008412455
0.450305216884137
0.453937086988328
0.457564512861533
0.458845989661038
0.460127637736615
0.460236202331446
0.466204267045931
0.465153968660021
0.462933317015481
0.460714985432392
0.454980519684862
0.458607302389921
0.452867224544927
0.456490870064363
0.461285097597517
0.464908694198771
0.472041972261130
0.479173067322612
0.480454950279861
0.480570932961836
0.476005682565209
0.469102506875736
0.462198261028965
0.456463405341019
0.448389420176878
0.443829164708362
0.449795928358624
0.452239683505200
0.462872823761026
0.464130526311661
0.471240365110945
0.472494797136651
0.471399572684244
0.463272987687610
0.452804938065437
0.441165863795122
0.433036422074912
0.428418138172925
0.430817413468491
0.430867585814217
0.433255867736768
0.433297724617157
0.434514426778076
0.435736435522849
0.425250668258803
0.425304495952233
0.420673513915560
0.417211216723092
0.421946732214818
0.420829882238375
0.427901956185025
0.430284326966192
0.432663443133686
0.433866531438940
0.431557922297263
0.435104234880787
0.430451570489340
0.429309019998036
0.428176410484327
0.424712925989103
0.429450814994736
0.427173380176171
0.429580339206405
0.433159175690168
0.434404678320765
0.436827701845036
0.440421198123175
0.438160926395243
0.433561793947881
0.433646923706452
0.432568738758147
0.432669306911316
0.435115140706885
0.436395462627811
0.436500287920114
0.437769856060283
0.430843885219320
0.425085722681941
0.425183413398286
0.419429661923400
0.412502584950063
0.414940189334667
0.423239091206464
0.419837750615479
0.416440299398912
0.410707434477489
0.401461875155979
0.399240214576859
0.407559902059658
0.429931844636839
0.472203190503090
0.530861520100322
0.589518120648873
0.644658876427696
0.683410377959927
0.699918855393972
0.691838605794608
0.649804411570768
0.562111555563963
0.449833753594301
0.335214924761100
0.241671273599092
0.187932235408176
0.176339181432436
0.195186323799732
0.226911291862391
0.266837530267272
0.297404197612960
0.319778440367875
0.336303712324027
0.349318221058066
0.364675609774386
0.378866919528263
0.390720729470593
0.404914734401285
0.410911950560225
0.416910043458447
0.420566144557293
0.426567466088863
0.427889642697034
0.425700349983760
0.430537525238342
0.435365732525524
0.442525097820185
0.449679796238591
0.450972735774740
0.449921705889124
0.455893200581588
0.458344556210894
0.463130617675850
0.462064842589905
0.462171778383284
0.461106060377649
0.462382104091379
0.468334537339483
0.464913433865977
0.465002399949348
0.469770542709739
0.472199390958324
0.475802353269651
0.479404451973981
0.479495198747766
0.477242839278937
0.474988589110685
0.479760008041491
0.479848802705553
0.482273061964096
0.483520277758354
0.491788712892342
0.496539692526773
0.498948550637950
0.499015582408833
0.496737106130965
0.497967999315767
0.498034537740928
0.498108010015288
0.500526252701549
0.501779523296115
0.507715401720990
0.508967477500286
0.513736664373764
0.516167878402417
0.519768020271658
0.521025043770999
0.522282408623130
0.517685007832525
0.518945407749304
0.520210067399197
0.526158783877867
0.522743376095602
0.527517890442612
0.532285842332490
0.534710140934676
0.542984006621831
0.540720245772213
0.537285394599571
0.530334075297953
0.535087113006735
0.530477261853949
0.528212340930649
0.531801874532581
0.529539754600611
0.540153441659508
0.546080928343311
0.544984497635128
0.547400020458418
0.547473882059024
0.547548084949879
0.551134025872778
0.545353339076737
0.543085324570104
0.540817590863801
0.543233058099301
0.540965674036188
0.548063149401583
0.552817584251252
0.551717553363049
0.550616517334253
0.554198469565664
0.555438843614462
0.551995289841349
0.548551119335814
0.550961428644039
0.551030798268559
0.548758799437955
0.546487303621904
0.548898540369919
0.552480148876411
0.550208181957858
0.545594796131412
0.540981031115076
0.534025379280465
0.528240308303366
0.524796483556749
0.522523631495840
0.519080226039032
0.517978263764923
0.519217862622393
0.512259880832765
0.512324175924987
0.506533294468527
0.506594383792472
0.501971606219242
0.493835798045690
0.484527368047322
0.478729637079247
0.469419596445476
0.465963436263671
0.463677366023375
0.463732551263366
0.462615353568569
0.461496444509864
0.461547553929953
0.458085261718538
0.456964689011491
0.449990607405375
0.447699193947432
0.447749263395226
0.441944865428032
0.444335265035456
0.439700942221606
0.439749568060817
0.443309092589276
0.442184047563082
0.442228869047596
0.442272458698885
0.446998820058547
0.443529465644523
0.442400678315662
0.440100324842194
0.436630239451006
0.437844413193276
0.429692799855962
0.432079122190826
0.430952829229175
0.429826220279582
0.434554253560718
0.434599705654758
0.433473853494772
0.432347534988504
0.428879572796189
0.428923619881803
0.417260512638486
0.420818199828083
0.418522050185618
0.417396955703826
0.422124541860150
0.422167614620904
0.425722492136219
0.422251750246103
0.422293110509322
0.419992754033654
0.414179160840841
0.410706363203196
0.409575684548544
0.410787139014871
0.410827851221038
0.408527374291854
0.413250958425183
0.409778436454722
0.415672222071843
0.419224328225660
0.419263092845642
0.422813174874318
0.414654733283648
0.412349192780348
0.408872581183207
0.406566464404491
0.408942620652484
0.407805742167070
0.412522411767784
0.411384815633128
0.417271408606423
0.420816047992130
0.419676800503674
0.423219859357157
0.419737693938167
0.417425652798205
0.412772291427123
0.412802378738465
0.409319983819426
0.403496138449351
0.415233592901996
0.417604435645685
0.417633787403879
0.417663111446681
0.416520903402638
0.417719494879297
0.413063738789017
0.413090452041431
0.410775520255996
0.409631312419764
0.408486632762883
0.410853937095374
0.414389049003426
0.417920876380984
0.417938402759579
0.420294739719268
0.421478957071042
0.420320334824664
0.417988237849946
0.413312134007014
0.412147941904588
0.409812507741542
0.407475750609116
0.409821247359806
0.408651932765918
0.415675435809117
0.416843593707179
0.418009896118942
0.418005195373125
0.414488198787109
0.415653269902928
0.412134668550067
0.414468680907311
0.412118221036001
0.410937948731887
0.410927714764963
0.413256627512268
0.417924643094896
0.417907799654542
0.419059555155533
0.419039517214294
0.420189310620629
0.417824885399938
0.415458823029916
0.416605581154207
0.415411373958081
0.410704596344629
0.410681269258966
0.409486045667151
0.408289655615591
0.415288786709111
0.416433830201354
0.417577469344993
0.415207435713592
0.415178022461513
0.412805847974930
0.411604309909948
0.409231925171953
0.406858730816710
0.407997309760813
0.410304330250093
0.419633434268754
0.421936321606845
0.417212471279421
0.417170517165052
0.411273532697139
0.411228391988618
0.407669041725263
0.408792472897609
0.409915581000361
0.408696161202513
0.410988478045447
0.415620598533852
0.421421659901925
0.423709434362296
0.418971325078382
0.417745793034135
0.418862304097278
0.418807646835564
0.418753045909502
0.414014754779737
0.415129722280894
0.413903237863817
0.418530632496072
0.423156632658205
0.424268904148787
0.428892727659626
0.430003107390412
0.432284182341172
0.429882155983753
0.423967031288541
0.429759157558358
0.427354635479187
0.423777984449043
0.427225153627972
0.429500491217966
0.429433451378034
0.429365628084194
0.431638271361176
0.433909873193687
0.437352027185520
0.437281651286800
0.437210713209081
0.439480976595383
0.441750334755901
0.441677194745801
0.443945116013566
0.440358536963367
0.440282132824383
0.434349582677980
0.428415411822386
0.424820743087598
0.422395795104256
0.426994485045987
0.429249707961102
0.437357090561973
0.444292911512283
0.444203240149310
0.446453947426374
0.440508250204505
0.435731549879857
0.430953006625419
0.421490077741122
0.416708784194507
0.411927200062878
0.409487045369214
0.402362947132589
0.399921467634971
0.399820486907309
0.393864510979633
0.396103454951636
0.393658656501945
0.400578366762893
0.403984023869735
0.406217629075527
0.409620468641172
0.408339439928564
0.409399258868209
0.404603873273741
0.402148898400467
0.404386296272859
0.400780073414800
0.403033260688841
0.402953430488278
0.405217588967730
0.407483986899201
0.409758433417410
0.410869063488279
0.409637861000620
0.408406636766793
0.408349090456289
0.402438923454148
0.405902267833937
0.404690316907529
0.408165064813883
0.408132549879404
0.410439312742816
0.416255056217762
0.419730517814766
0.420863566564441
0.421999168451076
0.418454598946869
0.417250945690132
0.413705810645893
0.410167823231239
0.405466353737687
0.398427698383908
0.392565990655231
0.391388543866146
0.394895054289783
0.399577206796953
0.404263138409047
0.404262275927075
0.398403568193291
0.393714436681600
0.387851309164153
0.391356483211370
0.405400892741802
0.429980094883978
0.476802889776097
0.527140818242643
0.592701408039580
0.652409387755542
0.694557877358533
0.726167923266002
0.729677632669148
0.709772596787903
0.651231859109082
0.559915861621476
0.440508587918212
0.319934182830621
0.222780884205047
0.166607118751019
0.157266525414633
0.178371557542833
0.213530717024104
0.254542949530357
0.285017368938791
0.309639426683043
0.328407756742435
0.338985015788194
0.348396178974904
0.362491934692302
0.369565478677157
0.380146179482033
0.389549811898132
0.397780653557217
0.403665634371724
0.411891500553953
0.414263027724466
0.416630179785353
0.418993591983321
0.416676845388796
0.417875340359593
0.426098495656067
0.428469346292375
0.434349014809141
0.436712397462575
0.441417152055540
0.443778949192878
0.446143394078890
0.449682023396065
0.452050445113956
0.454420658573625
0.452108008221163
0.452136933580177
0.450996962743291
0.459224776562910
0.462766561328464
0.466305296712537
0.473355272643731
0.476890679490180
0.475743823724813
0.478110353427679
0.476963107795984
0.473473538299620
0.474673555436900
0.474709711982456
0.472408300243018
0.474795997835617
0.481868028442873
0.481916474417953
0.487824084832633
0.493736074679162
0.492623480063427
0.491511181335725
0.485717617286501
0.488120371848668
0.496381656787283
0.494110872304213
0.494183964520916
0.496601838866748
0.502529548299932
0.506112415932433
0.509695391135231
0.515618361473101
0.518030199974229
0.521614265578563
0.521684588123869
0.521754045305538
0.520656996127196
0.519564266152847
0.520815276673851
0.525582079955718
0.528007026341486
0.530431413470421
0.532858163655872
0.535286433324614
0.535367483626433
0.543637897600324
0.549563438687095
0.541434327806945
0.542670921395729
0.540394776136471
0.541626328663031
0.534658690724155
0.541740713304498
0.553505921385060
0.552391182170219
0.548934379381271
0.550156489896115
0.551374106431476
0.550248155728248
0.543265397268981
0.545651916813003
0.548042276732150
0.546920605876641
0.548142508546056
0.550534234903186
0.558778610049462
0.558829304390134
0.556539595227146
0.557758040633932
0.561313796061911
0.556672030391265
0.552026844792186
0.556748337359753
0.553275089512044
0.548628715091735
0.548663950874760
0.548701562572396
0.552253920756805
0.552295137525897
0.548826235888695
0.546527343272994
0.546569171497791
0.541929452446589
0.534949159869700
0.533822014987211
0.532694292896355
0.522200241388864
0.519901149407390
0.516432505530296
0.516477521715780
0.517693520130903
0.511885465353207
0.511928092117836
0.506113155920727
0.501467426689019
0.495648245169862
0.488657566560887
0.489861749517685
0.485209501326035
0.482896638623233
0.482926299644449
0.479444590285907
0.481816440583275
0.475993284991886
0.478363622934107
0.469024068580853
0.464367302014093
0.463221998904339
0.459740771317373
0.456266027605311
0.452794326976120
0.451669155840509
0.456399536902017
0.458789864130580
0.463526672226697
0.458901607083903
0.462470986909580
0.460185557566612
0.452047601836963
0.454446751377917
0.448654735002811
0.449892016893488
0.447618564882834
0.441835383427088
0.444246484810066
0.445485000987618
0.444382698276821
0.445621567213376
0.444520043529704
0.449273773134263
0.442319336106430
0.441218708871871
0.437780428882328
0.434346156353398
0.435597294431087
0.434510195880911
0.435765210015462
0.438191381089397
0.437107828841647
0.438367839033325
0.440795014759310
0.443218275377363
0.437444401942547
0.436350394362870
0.435256926044743
0.432993335019420
0.433068673556383
0.435483660387942
0.435558430712275
0.437975921941849
0.442734998323679
0.442811725554627
0.441715568960540
0.441787877045255
0.433664411449029
0.433735368531659
0.430297544555194
0.428034674326113
0.433968744469855
0.432880983486264
0.435306171777258
0.436561009757857
0.436647792927263
0.439078420072199
0.437994961263402
0.436909720717772
0.434653604367614
0.430054837418257
0.433653399223289
0.430229395279994
0.431488296860475
0.432747669580078
0.435168681047559
0.442262422187548
0.443496874618881
0.448235394060242
0.448287494928891
0.447165726639169
0.443694199644072
0.440215325755241
0.441419954579396
0.435600174355307
0.437972771471138
0.443856428504903
0.440366487907277
0.443893286162864
0.445075011021411
0.448593281867882
0.448599952550775
0.448608307804081
0.446272928769892
0.441595504134549
0.445110594587452
0.442768544869649
0.443938271510532
0.445106927509436
0.446268496054336
0.453276692585829
0.452084732601338
0.447374176502229
0.446173848247588
0.446142444309207
0.446105802310728
0.443723259257692
0.443686275222798
0.440141393295661
0.436597629828540
0.440081937233171
0.440051657992642
0.441189712705758
0.441159418082655
0.444642792682051
0.445781115840193
0.445745404141558
0.444537322813855
0.440984995166993
0.437434220132885
0.436226840502626
0.439701451857150
0.443175946155587
0.444301914386383
0.447761513357971
0.447704840331754
0.447642215721293
0.451089272517164
0.451021614534832
0.447435786975787
0.448527861509590
0.444937645739447
0.447202157266194
0.444781869072937
0.448215249049489
0.450473154271076
0.450384476647114
0.449123415085217
0.452542829418461
0.452452852171277
0.454708303169834
0.451110385350513
0.448685466482650
0.442748032362435
0.442664125996114
0.441411854684212
0.443673915977540
0.445932678389098
0.444675799879965
0.445759531055296
0.445670270935342
0.450265837463588
0.449009579664471
0.444240097150721
0.444153768044265
0.439381783557121
0.436948261372169
0.435684353591402
0.435589263328955
0.440176190961715
0.442420624562000
0.447004527379220
0.445732634468601
0.445632708440684
0.447875631059357
0.440752249168490
0.444166571314170
0.447579510994695
0.446307814942934
0.445036302402950
0.450789179938972
0.451852743253090
0.456422035338825
0.462157966683464
0.464375768976306
0.465420822946151
0.468805581430965
0.462818863576061
0.461510712229770
0.461372429579315
0.456549960591242
0.462262071283691
0.464460253951844
0.470166028545966
0.472354491876364
0.479223268228887
0.482576160193599
0.477734601906521
0.474065449211171
0.461028982531149
0.450334298190316
0.449003891907414
0.442988233412946
0.445168131666651
0.452030823842911
0.460059846761877
0.466913599751899
0.470252247064872
0.472416314028062
0.464042594052079
0.453326731131455
0.442607931584766
0.430716090504648
0.425855249576586
0.422172141566745
0.422004775642083
0.424184808192143
0.422852863972671
0.429716571441367
0.429560784759682
0.427067612123353
0.430427180354841
0.431444316451561
0.428950255148718
0.424114595595422
0.425137407750017
0.422652855516458
0.423682427829606
0.425885706630559
0.425743624028734
0.431450701777707
0.430132460141659
0.428811618542289
0.427491442688354
0.422659928597190
0.422509173811275
0.428210625734566
0.426891899333578
0.426748528520600
0.423094879028789
0.426469500627718
0.426330946232967
0.429703603007045
0.430737101112246
0.431772021090430
0.435144719814556
0.432659640666368
0.431343208070554
0.431194033184534
0.428703643366148
0.425042910011450
0.416696339809658
0.415372452825044
0.408195204757894
0.405701391774519
0.403207160250289
0.403054612254439
0.415778351468504
0.416791904009927
0.417804642545601
0.414132890007296
0.404610735971787
0.393921908560044
0.385576013228161
0.388940680504051
0.402842673669413
0.434306471780986
0.479822236306112
0.535877161569462
0.597784061961989
0.651493612209798
0.687641275114325
0.705055281012586
0.697884817412019
0.660276220405048
0.587544049172240
0.485542893826127
0.375339656019938
0.273324244418612
0.209940696921520
0.184016118224234
0.195554030108999
0.226992959068447
0.263109096119394
0.302732279411102
0.331819144685252
0.351540402259264
0.370088921849794
0.383953771171234
0.393130336427557
0.398788993251755
0.402103897421222
0.404244713997695
0.408727747392520
0.409699816069727
0.411841303382796
0.417494949234904
0.417292939593442
0.420601271349023
0.427421791120154
0.429558728776421
0.435203247243191
0.438501340372450
0.440625627078362
0.447428898586041
0.447206335184215
0.452836677354994
0.450268206074390
0.445355448690004
0.448641739210000
0.447248883462879
0.450540567317575
0.453835432966475
0.458300020143094
0.461592642464686
0.464887765193588
0.469355360871183
0.470308617632303
0.468918501910019
0.466357097396898
0.467306678835783
0.469428946801212
0.468041027131280
0.468994552275927
0.472290299580876
0.474410834869487
0.474184677155824
0.478639488455217
0.483090670434373
0.479345246333970
0.480281979285332
0.478873645673151
0.475120726968211
0.478393975065139
0.478156427263216
0.482601634346029
0.482364497427535
0.486807892161271
0.493590029195168
0.498030378229985
0.502469738382726
0.503409875653192
0.500852523445845
0.502985990048068
0.501619012299709
0.503768796564696
0.500068817417246
0.504575972426076
0.506751969081215
0.510098078248801
0.519297641616541
0.517964474031931
0.524828462461198
0.527019868471003
0.524539474443425
0.526747176842654
0.521937355261222
0.517125958458558
0.513482355307962
0.521549326229513
0.524933434743739
0.524809232512946
0.524689541757712
0.526911788530393
0.536159878649277
0.534881128824312
0.533612776026382
0.537034154766231
0.534610575731282
0.532189687930395
0.535625002084920
0.530872250830537
0.527296313739551
0.530739214669957
0.534175709059149
0.538781232976420
0.538698656617895
0.539789971746769
0.533860003278173
0.534951136703302
0.534869494697242
0.528938750358446
0.531207883682243
0.529966809848009
0.527558623376546
0.526318894569177
0.530930329579164
0.528518542277514
0.524936008526851
0.524875684492032
0.523655820796471
0.516587607268307
0.510698595441694
0.508325579759433
0.502443516087972
0.497740484657043
0.498898685486804
0.497714061270014
0.497698916500024
0.500027646425853
0.497673483740374
0.496496731758640
0.489473202143760
0.485964217478917
0.481288140644661
0.475436321688607
0.467236580024379
0.460206369862652
0.461367720828871
0.459016691699304
0.454324325442998
0.454310948924644
0.448440226633055
0.450769555536066
0.451932719448590
0.442559921293500
0.440214747988145
0.437866513511894
0.433173138608573
0.430822243678879
0.429641614498945
0.434318524684219
0.434316830666133
0.434316591769629
0.431977528351078
0.429639746713867
0.431986116828225
0.426139950441016
0.423808727251249
0.421475236235824
0.416797765350717
0.417973918883268
0.420319337486025
0.423837330878587
0.426186572286732
0.426193586193087
0.426200650812730
0.422704402814523
0.425071648917873
0.419249359413136
0.415777035108953
0.411136532540125
0.405327670135991
0.404209497499868
0.406610149020480
0.410182616312152
0.411414826775187
0.414991888631580
0.416229465343536
0.413961511897536
0.414042274582262
0.414126916560672
0.410704245710177
0.408450455337284
0.406193801397578
0.406279976428120
0.405194634232232
0.407624192434307
0.413568959896244
0.414830053034178
0.414920461505935
0.417358788331230
0.415120438548705
0.410544359876681
0.407144445563842
0.408428452285932
0.407371407697705
0.407489209042586
0.409951611809603
0.410063204239380
0.414847787396579
0.414944171755607
0.412690436698422
0.416289923901747
0.416376618799018
0.412943411206088
0.411845629603036
0.409578467964929
0.411995422949040
0.409727443355769
0.410971635082985
0.416892192391711
0.421634687961926
0.425203626746557
0.425255837870791
0.424142589145760
0.423035975523348
0.424271699877562
0.420827900580150
0.422066071568928
0.419790301792911
0.416346972713668
0.418759778970671
0.422336755097678
0.425906993211041
0.425961786496943
0.426011234336398
0.426061740809359
0.422601371867555
0.419137405311666
0.415671242891802
0.415722554717144
0.415779163400593
0.414667824638632
0.420585937743742
0.421820260765332
0.423053771240279
0.424290941327999
0.423189156537435
0.426769575108132
0.423324708826477
0.421051031384299
0.418777001134298
0.418847533178523
0.418921286089962
0.414312906769952
0.414389411853050
0.416802337072705
0.423892361009760
0.427467908157611
0.427526973731279
0.431097719638320
0.429984966761203
0.430039059306520
0.424236008393338
0.423118586048574
0.424345234811460
0.424401243424622
0.423288018067484
0.425684309718796
0.429248249172197
0.436324696378443
0.430521772096865
0.434094518825781
0.430653457262181
0.424876161130250
0.422619585080150
0.422707829903775
0.418115965634340
0.417044810225889
0.418322691134383
0.424282548764744
0.423216710876133
0.431519769312292
0.429286490710198
0.430572875558300
0.427184064157965
0.423798282212035
0.425100247929567
0.422888736621260
0.420675058273953
0.417292396888004
0.420934468331835
0.424578941537788
0.427055360724951
0.428361034568883
0.428496444805757
0.430980136725708
0.432299952199162
0.427770109503083
0.424416862429543
0.422235920055507
0.425910114328291
0.428418257900168
0.428588641911482
0.431095229684898
0.437108288847062
0.445460690935930
0.449125247149813
0.445766523350604
0.443580150691631
0.435536142886915
0.436855766730542
0.435836584782444
0.438332209939839
0.441999208226667
0.438643340897028
0.441138465766870
0.442459581776339
0.442609937186116
0.447442298062126
0.446427042006323
0.450102180519261
0.454951051822494
0.450438813089437
0.451782007187438
0.454297217286940
0.447451148625444
0.444121655274328
0.440789858777684
0.438626490496924
0.438805056702779
0.444836273929724
0.449700306377452
0.458080602728923
0.461777999043854
0.459622809597367
0.458634197915954
0.450615750159260
0.446107817232562
0.436913255085046
0.427717441509789
0.426715976463159
0.422198374321134
0.424702000344340
0.424865960484204
0.422690259461453
0.421684811500947
0.419509327607352
0.418501411694353
0.417489923181247
0.412965481137658
0.418976457976581
0.416792832664800
0.423976779572594
0.424135547167655
0.424294534540245
0.424452951420966
0.419927525813893
0.421256294783074
0.417902089488056
0.416886563443115
0.417038815524870
0.413677061335804
0.417337508654346
0.419826705195699
0.425827881664367
0.425973156060643
0.428458389138351
0.430948041277516
0.428759400707768
0.427743810359361
0.426732165638241
0.421037471682337
0.421196581835598
0.419017495953642
0.421524136738459
0.424029650027970
0.424192632765664
0.429039110953249
0.428031230631480
0.430538405463157
0.420169982822739
0.414485367793294
0.409972984789713
0.400774349309849
0.399767346719080
0.397588496852919
0.401261109950658
0.403762683833749
0.406264184457982
0.402909433021147
0.397211177346567
0.399710575937723
0.413919991420888
0.441008442853106
0.488001618253080
0.544359461594393
0.606569418342874
0.654730633431799
0.686500855818030
0.692515839757996
0.665751379257825
0.595669052688831
0.490464936285223
0.371212440135620
0.268351695594795
0.193591355959290
0.159809884133432
0.161151090058819
0.187077935910375
0.221200627915540
0.244786167165519
0.266031606540313
0.281424762397287
0.294476715392102
0.306358625133422
0.322923854981364
0.344172224807390
0.360738049102330
0.381987368593127
0.390358558516171
0.398730212017489
0.402419043572979
0.404937392880292
0.409798499986865
0.418173192615464
0.420694820838486
0.427900619427794
0.432765359957224
0.435289001995106
0.438984363393619
0.439168214611324
0.440520898995824
0.443042197711737
0.444391772111356
0.448081172279083
0.450599776584707
0.454289200987362
0.455635553182634
0.461663815111815
0.463009575102374
0.465526651612201
0.464531247092142
0.463536105453556
0.464881259792282
0.463883483257135
0.462885402050635
0.466569760012197
0.467913882586373
0.473942725101086
0.477630406788107
0.482489842077818
0.481495444484489
0.484013340856277
0.481849070073072
0.482027112098591
0.484545610197980
0.478867544364222
0.482555352290794
0.479217689051509
0.486417556018624
0.491276495035199
0.494964231715134
0.500993397294544
0.504687507754341
0.509559456514431
0.502727808499438
0.500585341918033
0.506640343195599
0.504501812399717
0.505881275248556
0.511948779226373
0.518016849026660
0.522914890038176
0.523132284219846
0.517497275516141
0.520062899165869
0.524975581962453
0.528720417597748
0.525444429467854
0.528021262062976
0.524742448550363
0.524977233403082
0.527553419633127
0.531302555434730
0.533883333705876
0.539976452907074
0.537874621219182
0.541631774267301
0.541881777318203
0.542135063480869
0.541222023474139
0.537968581956229
0.538228422543228
0.536150281213124
0.541099658024831
0.541364415479340
0.547481416766189
0.551256773505733
0.549176980079630
0.555294527279486
0.553218619728777
0.551142074023529
0.549065503285958
0.546991132186478
0.547260361152879
0.547530942577737
0.548974147242245
0.550417131243102
0.553030538896907
0.555644995553001
0.553576903369428
0.552684095110569
0.554137863029822
0.549740536514317
0.547688705837679
0.540955739067498
0.542420036452706
0.542717394166192
0.544188989074801
0.545660698587465
0.549474076006241
0.550947400403987
0.551250634687891
0.548044739532215
0.543671453454839
0.536958089868027
0.529076003071606
0.522361743544221
0.517985375013035
0.513608106139634
0.512740767843151
0.509531901546395
0.511006307450885
0.506624399366951
0.502240487242157
0.496688106802506
0.494650331488690
0.485588295298043
0.482381565245653
0.476831393785048
0.473620602884780
0.470410074505545
0.468369791434161
0.468673247559346
0.466637831281899
0.471627873358368
0.467253308079969
0.465220846911138
0.465530338878874
0.462329151449359
0.460300176174629
0.459440438741054
0.452725190633122
0.457717380473827
0.460366920748921
0.459505081361046
0.458644329114680
0.458953782282056
0.456921555180841
0.460747718736301
0.461066326570787
0.452021629154766
0.447664236687483
0.444478747172810
0.445977397627252
0.446308989360313
0.443131387634267
0.445808079865485
0.448485318014734
0.451164076326590
0.452672963400990
0.455355927926764
0.454530037000806
0.447852079452666
0.443518069649298
0.439182766570954
0.438357992676510
0.438704371052509
0.437879272389418
0.440567583367500
0.443257130151237
0.443604512453942
0.446293188870516
0.446643344311877
0.448167338011105
0.445009913288852
0.445367326175916
0.442212493160412
0.440228355627474
0.438246009929254
0.436264911458022
0.437773099936718
0.441597505393163
0.440724429368648
0.442171511586639
