250
-4.09
-4.1
-4.135
-4.17
-4.205
-4.245
-4.28
-4.325
-4.375
-4.42
-4.46
-4.51
-4.545
-4.585
-4.61
-4.645
-4.665
-4.695
-4.71
-4.72
-4.74
-4.75
-4.75
-4.765
-4.775
-4.775
-4.775
-4.775
-4.78
-4.785
-4.795
-4.795
-4.79
-4.795
-4.795
-4.795
-4.785
-4.795
-4.8
-4.795
-4.795
-4.785
-4.785
-4.795
-4.79
-4.785
-4.785
-4.795
-4.79
-4.785
-4.795
-4.795
-4.795
-4.79
-4.8
-4.805
-4.805
-4.805
-4.805
-4.81
-4.81
-4.83
-4.83
-4.83
-4.83
-4.83
-4.84
-4.845
-4.845
-4.85
-4.85
-4.86
-4.86
-4.865
-4.87
-4.87
-4.87
-4.87
-4.87
-4.875
-4.88
-4.87
-4.87
-4.875
-4.88
-4.89
-4.875
-4.875
-4.885
-4.89
-4.88
-4.88
-4.88
-4.88
-4.89
-4.895
-4.88
-4.89
-4.89
-4.88
-4.88
-4.875
-4.865
-4.87
-4.87
-4.875
-4.88
-4.875
-4.875
-4.87
-4.86
-4.855
-4.85
-4.86
-4.85
-4.845
-4.845
-4.83
-4.83
-4.84
-4.835
-4.81
-4.785
-4.775
-4.775
-4.775
-4.78
-4.775
-4.805
-4.815
-4.81
-4.795
-4.78
-4.775
-4.775
-4.78
-4.775
-4.78
-4.785
-4.785
-4.8
-4.835
-4.845
-4.84
-4.845
-4.845
-4.855
-4.855
-4.86
-4.855
-4.85
-4.845
-4.845
-4.84
-4.85
-4.86
-4.845
-4.82
-4.78
-4.71
-4.59
-4.44
-4.285
-4.195
-4.265
-4.355
-4.42
-4.51
-4.62
-4.825
-5.05
-5.195
-5.29
-5.25
-5.13
-4.995
-4.915
-4.865
-4.845
-4.83
-4.825
-4.805
-4.795
-4.795
-4.795
-4.79
-4.785
-4.795
-4.785
-4.78
-4.775
-4.78
-4.78
-4.785
-4.78
-4.775
-4.76
-4.74
-4.72
-4.715
-4.705
-4.685
-4.685
-4.675
-4.665
-4.665
-4.645
-4.635
-4.615
-4.59
-4.575
-4.55
-4.54
-4.525
-4.495
-4.47
-4.45
-4.415
-4.385
-4.35
-4.31
-4.285
-4.255
-4.225
-4.19
-4.155
-4.135
-4.13
-4.115
-4.095
-4.085
-4.075
-4.07
-4.08
-4.09
-4.1
-4.115
-4.14
-4.17
-4.215
-4.245
-4.285
-4.33
-4.38
-4.42
-4.47
-4.505
-4.55
-4.59
-4.62
-4.655
-4.68
-4.705
-4.73
-4.74
-4.755
-4.77
-4.775
-4.785
-4.805
-4.81
-4.805
-4.805
-4.805
-4.815
-4.825
-4.835
-4.83
-4.825
-4.815
-4.82
-4.815
-4.805
-4.815
-4.82
-4.81
-4.805
-4.81
-4.805
-4.805
-4.81
-4.805
-4.8
-4.805
-4.81
-4.805
-4.81
-4.805
-4.81
-4.825
-4.83
-4.835
-4.845
-4.845
-4.845
-4.845
-4.845
-4.85
-4.855
-4.865
-4.87
-4.87
-4.88
-4.885
-4.89
-4.895
-4.905
-4.905
-4.905
-4.91
-4.905
-4.9
-4.9
-4.905
-4.91
-4.92
-4.925
-4.92
-4.925
-4.92
-4.915
-4.91
-4.915
-4.925
-4.925
-4.925
-4.92
-4.92
-4.92
-4.92
-4.93
-4.925
-4.925
-4.925
-4.93
-4.925
-4.92
-4.925
-4.925
-4.925
-4.92
-4.91
-4.905
-4.895
-4.885
-4.87
-4.845
-4.84
-4.84
-4.835
-4.83
-4.835
-4.845
-4.865
-4.87
-4.87
-4.87
-4.88
-4.875
-4.865
-4.86
-4.865
-4.87
-4.865
-4.87
-4.875
-4.89
-4.91
-4.925
-4.93
-4.94
-4.935
-4.94
-4.935
-4.935
-4.935
-4.935
-4.94
-4.935
-4.93
-4.925
-4.92
-4.905
-4.895
-4.855
-4.76
-4.615
-4.46
-4.31
-4.345
-4.455
-4.525
-4.605
-4.685
-4.805
-5.005
-5.185
-5.31
-5.36
-5.26
-5.12
-5.02
-4.955
-4.92
-4.92
-4.905
-4.89
-4.88
-4.875
-4.875
-4.875
-4.87
-4.87
-4.865
-4.85
-4.855
-4.845
-4.84
-4.84
-4.835
-4.83
-4.81
-4.8
-4.795
-4.785
-4.785
-4.765
-4.765
-4.75
-4.745
-4.73
-4.72
-4.7
-4.685
-4.67
-4.655
-4.64
-4.615
-4.59
-4.57
-4.545
-4.52
-4.49
-4.46
-4.435
-4.405
-4.365
-4.33
-4.3
-4.28
-4.245
-4.215
-4.2
-4.18
-4.165
-4.155
-4.135
-4.13
-4.13
-4.14
-4.135
-4.155
-4.17
-4.2
-4.225
-4.265
-4.3
-4.345
-4.375
-4.425
-4.475
-4.515
-4.56
-4.59
-4.635
-4.665
-4.695
-4.715
-4.735
-4.75
-4.765
-4.79
-4.8
-4.805
-4.815
-4.825
-4.83
-4.825
-4.83
-4.83
-4.83
-4.835
-4.845
-4.84
-4.84
-4.835
-4.83
-4.83
-4.83
-4.825
-4.825
-4.825
-4.825
-4.825
-4.825
-4.825
-4.83
-4.83
-4.83
-4.825
-4.83
-4.83
-4.84
-4.84
-4.85
-4.85
-4.845
-4.85
-4.86
-4.86
-4.875
-4.87
-4.875
-4.88
-4.88
-4.895
-4.905
-4.905
-4.895
-4.895
-4.905
-4.915
-4.915
-4.915
-4.91
-4.92
-4.925
-4.92
-4.92
-4.92
-4.93
-4.93
-4.925
-4.93
-4.935
-4.935
-4.935
-4.93
-4.925
-4.93
-4.94
-4.935
-4.935
-4.935
-4.935
-4.935
-4.935
-4.94
-4.93
-4.93
-4.935
-4.935
-4.935
-4.935
-4.935
-4.935
-4.935
-4.93
-4.93
-4.93
-4.925
-4.93
-4.925
-4.92
-4.915
-4.905
-4.88
-4.87
-4.855
-4.845
-4.845
-4.835
-4.825
-4.84
-4.85
-4.87
-4.865
-4.85
-4.855
-4.865
-4.86
-4.855
-4.85
-4.855
-4.85
-4.85
-4.86
-4.88
-4.905
-4.91
-4.91
-4.91
-4.91
-4.92
-4.915
-4.92
-4.92
-4.915
-4.91
-4.905
-4.895
-4.89
-4.88
-4.87
-4.86
-4.815
-4.74
-4.61
-4.455
-4.275
-4.26
-4.35
-4.42
-4.525
-4.6
-4.71
-4.905
-5.09
-5.25
-5.32
-5.22
-5.075
-4.975
-4.925
-4.895
-4.87
-4.87
-4.86
-4.85
-4.85
-4.845
-4.84
-4.835
-4.825
-4.825
-4.825
-4.815
-4.81
-4.805
-4.795
-4.785
-4.78
-4.775
-4.775
-4.78
-4.765
-4.765
-4.745
-4.74
-4.725
-4.715
-4.7
-4.68
-4.67
-4.655
-4.635
-4.615
-4.59
-4.57
-4.55
-4.535
-4.515
-4.485
-4.45
-4.41
-4.39
-4.36
-4.33
-4.31
-4.285
-4.245
-4.22
-4.195
-4.18
-4.16
-4.145
-4.13
-4.115
-4.12
-4.12
-4.125
-4.135
-4.155
-4.17
-4.185
-4.2
-4.245
-4.285
-4.32
-4.355
-4.395
-4.44
-4.485
-4.525
-4.57
-4.59
-4.615
-4.65
-4.68
-4.7
-4.72
-4.735
-4.745
-4.76
-4.765
-4.765
-4.775
-4.775
-4.775
-4.775
-4.78
-4.78
-4.79
-4.79
-4.8
-4.785
-4.78
-4.765
-4.765
-4.775
-4.78
-4.765
-4.775
-4.785
-4.775
-4.775
-4.775
-4.785
-4.785
-4.78
-4.78
-4.785
-4.785
-4.795
-4.8
-4.805
-4.805
-4.81
-4.81
-4.825
-4.83
-4.835
-4.835
-4.84
-4.845
-4.845
-4.85
-4.855
-4.86
-4.855
-4.87
-4.875
-4.875
-4.88
-4.895
-4.895
-4.89
-4.87
-4.87
-4.88
-4.89
-4.89
-4.88
-4.88
-4.88
-4.88
-4.89
-4.89
-4.885
-4.89
-4.89
-4.895
-4.895
-4.89
-4.895
-4.9
-4.895
-4.895
-4.895
-4.895
-4.895
-4.905
-4.905
-4.895
-4.89
-4.89
-4.89
-4.89
-4.89
-4.88
-4.875
-4.87
-4.85
-4.84
-4.83
-4.825
-4.815
-4.825
-4.815
-4.795
-4.775
-4.795
-4.825
-4.83
-4.81
-4.795
-4.805
-4.815
-4.81
-4.805
-4.82
-4.82
-4.815
-4.825
-4.83
-4.845
-4.865
-4.875
-4.89
-4.88
-4.88
-4.88
-4.895
-4.89
-4.89
-4.89
-4.88
-4.87
-4.865
-4.865
-4.86
-4.85
-4.84
-4.81
-4.745
-4.635
-4.495
-4.31
-4.115
-4.12
-4.18
-4.245
-4.355
-4.485
-4.7
-4.96
-5.165
-5.28
-5.275
-5.165
-5.055
-4.955
-4.9
-4.865
-4.855
-4.845
-4.85
-4.84
-4.83
-4.83
-4.825
-4.815
-4.82
-4.815
-4.805
-4.805
-4.8
-4.79
-4.785
-4.79
-4.785
-4.765
-4.76
-4.74
-4.74
-4.74
-4.74
-4.73
-4.72
-4.705
-4.7
-4.68
-4.67
-4.655
-4.635
-4.62
-4.61
-4.585
-4.57
-4.55
-4.525
-4.5
-4.475
-4.45
-4.42
-4.395
-4.36
-4.33
-4.31
-4.285
-4.265
-4.245
-4.225
-4.2
-4.195
-4.19
-4.18
-4.18
-4.185
-4.195
-4.195
-4.2
-4.225
-4.245
-4.265
-4.3
-4.325
-4.355
-4.4
-4.43
-4.47
-4.505
-4.535
-4.575
-4.595
-4.63
-4.655
-4.68
-4.695
-4.7
-4.705
-4.72
-4.735
-4.74
-4.75
-4.745
-4.75
-4.745
-4.74
-4.745
-4.75
-4.75
-4.745
-4.74
-4.74
-4.735
-4.73
-4.72
-4.72
-4.72
-4.73
-4.72
-4.715
-4.72
-4.715
-4.73
-4.73
-4.735
-4.73
-4.73
-4.74
-4.735
-4.74
-4.75
-4.76
-4.76
-4.765
-4.775
-4.775
-4.785
-4.79
-4.785
-4.795
-4.805
-4.805
-4.805
-4.81
-4.815
-4.835
-4.83
-4.83
-4.835
-4.835
-4.84
-4.83
-4.84
-4.845
-4.85
-4.85
-4.85
-4.85
-4.845
-4.85
-4.855
-4.855
-4.85
-4.855
-4.86
-4.85
-4.85
-4.86
-4.85
-4.85
-4.85
-4.845
-4.845
-4.845
-4.85
-4.85
-4.85
-4.845
-4.85
-4.84
-4.825
-4.815
-4.805
-4.785
-4.775
-4.765
-4.765
-4.76
-4.745
-4.755
-4.775
-4.785
-4.79
-4.775
-4.785
-4.81
-4.795
-4.785
-4.79
-4.785
-4.785
-4.795
-4.785
-4.8
-4.835
-4.845
-4.845
-4.845
-4.84
-4.85
-4.86
-4.855
-4.865
-4.865
-4.86
-4.85
-4.85
-4.85
-4.85
-4.845
-4.845
-4.82
-4.785
-4.7
-4.585
-4.435
-4.26
-4.16
-4.225
-4.32
-4.4
-4.505
-4.615
-4.825
-5.045
-5.19
-5.275
-5.255
-5.14
-5.01
-4.92
-4.87
-4.85
-4.83
-4.815
-4.81
-4.805
-4.805
-4.805
-4.805
-4.805
-4.795
-4.79
-4.78
-4.77
-4.765
-4.765
-4.76
-4.76
-4.76
-4.75
-4.745
-4.745
-4.735
-4.715
-4.705
-4.695
-4.695
-4.7
-4.695
-4.675
-4.635
-4.6
-4.59
-4.575
-4.555
-4.535
-4.515
-4.505
-4.475
-4.455
-4.42
-4.39
-4.36
-4.33
-4.295
-4.265
-4.235
-4.205
-4.18
-4.165
-4.145
-4.125
-4.115
-4.115
-4.115
-4.115
-4.12
-4.13
-4.135
-4.145
-4.155
-4.17
-4.215
-4.255
-4.29
-4.33
-4.375
-4.42
-4.455
-4.49
-4.53
-4.565
-4.59
-4.63
-4.655
-4.685
-4.705
-4.72
-4.73
-4.745
-4.76
-4.765
-4.78
-4.785
-4.78
-4.785
-4.785
-4.775
-4.77
-4.765
-4.765
-4.76
-4.765
-4.765
-4.76
-4.75
-4.755
-4.75
-4.745
-4.745
-4.75
-4.75
-4.75
-4.745
-4.75
-4.75
-4.765
-4.765
-4.77
-4.775
-4.78
-4.775
-4.775
-4.775
-4.785
-4.8
-4.795
-4.8
-4.805
-4.81
-4.815
-4.825
-4.84
-4.835
-4.845
-4.85
-4.85
-4.86
-4.865
-4.865
-4.865
-4.865
-4.87
-4.875
-4.88
-4.88
-4.88
-4.875
-4.875
-4.89
-4.89
-4.88
-4.87
-4.88
-4.88
-4.88
-4.89
-4.895
-4.89
-4.89
-4.895
-4.9
-4.9
-4.9
-4.895
-4.895
-4.895
-4.895
-4.89
-4.89
-4.9
-4.895
-4.89
-4.875
-4.87
-4.865
-4.85
-4.835
-4.815
-4.805
-4.8
-4.8
-4.8
-4.785
-4.79
-4.81
-4.825
-4.825
-4.825
-4.835
-4.835
-4.83
-4.815
-4.825
-4.825
-4.825
-4.825
-4.835
-4.85
-4.875
-4.89
-4.89
-4.89
-4.895
-4.895
-4.905
-4.895
-4.9
-4.895
-4.895
-4.895
-4.89
-4.895
-4.89
-4.875
-4.87
-4.85
-4.805
-4.7
-4.565
-4.405
-4.275
-4.35
-4.46
-4.535
-4.62
-4.68
-4.805
-5.015
-5.18
-5.295
-5.33
-5.235
-5.07
-4.965
-4.9
-4.875
-4.86
-4.85
-4.835
-4.835
-4.83
-4.825
-4.815
-4.81
-4.81
-4.805
-4.805
-4.8
-4.8
-4.795
-4.8
-4.795
-4.785
-4.77
-4.745
-4.735
-4.72
-4.71
-4.7
-4.69
-4.68
-4.675
-4.665
-4.65
-4.635
-4.615
-4.595
-4.58
-4.575
-4.555
-4.545
-4.505
-4.47
-4.42
-4.39
-4.36
-4.335
-4.31
-4.28
-4.245
-4.21
-4.18
-4.15
-4.135
-4.115
-4.1
-4.085
-4.07
-4.07
-4.06
-4.05
-4.06
-4.07
-4.09
-4.115
-4.135
-4.165
-4.2
-4.235
-4.285
-4.33
-4.375
-4.425
-4.47
-4.505
-4.525
-4.575
-4.605
-4.63
-4.65
-4.675
-4.695
-4.7
-4.705
-4.71
-4.73
-4.74
-4.75
-4.75
-4.765
-4.765
-4.765
-4.765
-4.77
-4.77
-4.765
-4.765
-4.765
-4.765
-4.765
-4.765
-4.77
-4.775
-4.765
-4.75
-4.75
-4.75
-4.745
-4.745
-4.745
-4.745
-4.75
-4.75
-4.76
-4.765
-4.765
-4.775
-4.78
-4.775
-4.78
-4.785
-4.795
-4.8
-4.81
-4.815
-4.815
-4.825
-4.83
-4.84
-4.85
-4.86
-4.865
-4.865
-4.86
-4.865
-4.875
-4.88
-4.89
-4.89
-4.89
-4.87
-4.86
-4.865
-4.87
-4.88
-4.88
-4.88
-4.885
-4.89
-4.895
-4.895
-4.89
-4.89
-4.895
-4.895
-4.895
-4.895
-4.895
-4.89
-4.895
-4.895
-4.895
-4.9
-4.9
-4.895
-4.895
-4.895
-4.89
-4.89
-4.895
-4.9
-4.895
-4.88
-4.865
-4.855
-4.835
-4.81
-4.8
-4.8
-4.795
-4.785
-4.785
-4.815
-4.84
-4.83
-4.815
-4.815
-4.825
-4.815
-4.815
-4.825
-4.825
-4.835
-4.83
-4.845
-4.855
-4.875
-4.89
-4.895
-4.905
-4.915
-4.91
-4.91
-4.9
-4.905
-4.91
-4.91
-4.905
-4.9
-4.895
-4.875
-4.87
-4.87
-4.85
-4.805
-4.715
-4.585
-4.43
-4.28
-4.335
-4.44
-4.535
-4.635
-4.705
-4.825
-5.02
-5.18
-5.305
-5.34
-5.22
-5.065
-4.96
-4.91
-4.875
-4.865
-4.86
-4.85
-4.83
-4.825
-4.83
-4.825
-4.815
-4.81
-4.805
-4.81
-4.805
-4.8
-4.795
-4.78
-4.775
-4.77
-4.77
-4.765
-4.76
-4.75
-4.74
-4.735
-4.72
-4.71
-4.69
-4.675
-4.655
-4.645
-4.63
-4.61
-4.59
-4.575
-4.56
-4.535
-4.515
-4.485
-4.46
-4.425
-4.41
-4.385
-4.355
-4.32
-4.29
-4.26
-4.225
-4.2
-4.165
-4.155
-4.135
-4.13
-4.12
-4.115
-4.105
-4.105
-4.105
-4.12
-4.13
-4.145
-4.17
-4.2
-4.23
-4.275
-4.315
-4.35
-4.395
-4.44
-4.475
-4.52
-4.56
-4.585
-4.615
-4.655
-4.68
-4.7
-4.715
-4.735
-4.75
-4.765
-4.78
-4.775
-4.785
-4.79
-4.795
-4.8
-4.805
-4.795
-4.79
-4.79
-4.785
-4.79
-4.795
-4.785
-4.79
-4.785
-4.78
-4.78
-4.78
-4.78
-4.775
-4.765
-4.775
-4.785
-4.785
-4.79
-4.795
-4.795
-4.795
-4.8
-4.81
-4.815
-4.81
-4.81
-4.815
-4.83
-4.83
-4.845
-4.845
-4.85
-4.85
-4.86
-4.86
-4.86
-4.87
-4.875
-4.88
-4.88
-4.89
-4.9
-4.9
-4.895
-4.895
-4.9
-4.905
-4.92
-4.915
-4.915
-4.915
-4.915
-4.91
-4.91
-4.905
-4.915
-4.92
-4.915
-4.92
-4.92
-4.92
-4.92
-4.92
-4.925
-4.92
-4.92
-4.92
-4.92
-4.92
-4.915
-4.93
-4.92
-4.92
-4.92
-4.925
-4.92
-4.925
-4.93
-4.92
-4.91
-4.895
-4.895
-4.875
-4.865
-4.85
-4.84
-4.84
-4.84
-4.825
-4.81
-4.82
-4.85
-4.86
-4.855
-4.835
-4.855
-4.86
-4.85
-4.86
-4.87
-4.87
-4.875
-4.875
-4.88
-4.91
-4.925
-4.935
-4.935
-4.93
-4.94
-4.945
-4.95
-4.94
-4.94
-4.94
-4.935
-4.935
-4.93
-4.925
-4.92
-4.91
-4.905
-4.875
-4.81
-4.685
-4.535
-4.36
-4.32
-4.42
-4.535
-4.67
-4.765
-4.86
-5.05
-5.22
-5.35
-5.41
-5.32
-5.165
-5.035
-4.975
-4.935
-4.92
-4.905
-4.895
-4.88
-4.88
-4.88
-4.87
-4.865
-4.865
-4.86
-4.86
-4.85
-4.845
-4.845
-4.84
-4.83
-4.825
-4.815
-4.81
-4.81
-4.8
-4.785
-4.77
-4.76
-4.75
-4.735
-4.72
-4.715
-4.7
-4.685
-4.655
-4.645
-4.635
-4.615
-4.59
-4.56
-4.535
-4.505
-4.485
-4.46
-4.43
-4.395
-4.365
-4.34
-4.3
-4.275
-4.255
-4.23
-4.2
-4.185
-4.17
-4.165
-4.16
-4.155
-4.155
-4.16
-4.165
-4.18
-4.195
-4.225
-4.245
-4.28
-4.31
-4.34
-4.385
-4.425
-4.465
-4.505
-4.54
-4.575
-4.605
-4.635
-4.655
-4.68
-4.7
-4.72
-4.735
-4.745
-4.75
-4.76
-4.77
-4.775
-4.78
-4.785
-4.78
-4.79
-4.78
-4.78
-4.785
-4.785
-4.785
-4.775
-4.775
-4.775
-4.775
-4.775
-4.775
-4.775
-4.775
-4.775
-4.775
-4.775
-4.78
-4.78
-4.78
-4.785
-4.785
-4.79
-4.795
-4.805
-4.805
-4.81
-4.815
-4.815
-4.815
-4.825
-4.835
-4.835
-4.84
-4.845
-4.855
-4.865
-4.865
-4.865
-4.875
-4.88
-4.87
-4.875
-4.875
-4.875
-4.88
-4.89
-4.885
-4.895
-4.895
-4.9
-4.895
-4.905
-4.895
-4.895
-4.905
-4.905
-4.905
-4.905
-4.905
-4.905
-4.905
-4.905
-4.905
-4.895
-4.905
-4.905
-4.905
-4.9
-4.895
-4.9
-4.9
-4.895
-4.895
-4.895
-4.905
-4.9
-4.89
-4.88
-4.88
-4.88
-4.88
-4.88
-4.875
-4.875
-4.87
-4.86
-4.85
-4.84
-4.825
-4.8
-4.785
-4.785
-4.78
-4.775
-4.765
-4.775
-4.785
-4.805
-4.8
-4.795
-4.795
-4.8
-4.785
-4.795
-4.805
-4.815
-4.825
-4.825
-4.83
-4.85
-4.875
-4.89
-4.89
-4.89
-4.88
-4.89
-4.895
-4.89
-4.89
-4.895
-4.895
-4.88
-4.88
-4.875
-4.865
-4.865
-4.86
-4.845
-4.795
-4.7
-4.55
-4.385
-4.285
-4.375
-4.49
-4.63
-4.765
-4.83
-4.96
-5.14
-5.275
-5.365
-5.35
-5.195
-5.035
-4.935
-4.9
-4.87
-4.85
-4.84
-4.835
-4.83
-4.83
-4.825
-4.815
-4.81
-4.81
-4.8
-4.775
-4.765
-4.765
-4.765
-4.765
-4.76
-4.765
-4.76
-4.74
-4.73
-4.72
-4.715
-4.71
-4.695
-4.68
-4.665
-4.655
-4.635
-4.63
-4.615
-4.59
-4.57
-4.55
-4.53
-4.525
-4.495
-4.47
-4.44
-4.415
-4.4
-4.36
-4.33
-4.3
-4.265
-4.245
-4.225
-4.195
-4.17
-4.155
-4.135
-4.13
-4.125
-4.115
-4.115
-4.115
-4.125
-4.13
-4.135
-4.16
-4.185
-4.21
-4.245
-4.28
-4.32
-4.355
-4.39
-4.425
-4.475
-4.505
-4.535
-4.57
-4.595
-4.62
-4.635
-4.655
-4.675
-4.69
-4.705
-4.715
-4.72
-4.715
-4.72
-4.73
-4.725
-4.735
-4.73
-4.735
-4.73
-4.735
-4.735
-4.74
-4.74
-4.74
-4.73
-4.72
-4.725
-4.72
-4.725
-4.72
-4.72
-4.73
-4.735
-4.735
-4.74
-4.74
-4.745
-4.75
-4.76
-4.765
-4.77
-4.775
-4.785
-4.78
-4.785
-4.795
-4.8
-4.805
-4.81
-4.815
-4.815
-4.83
-4.835
-4.835
-4.845
-4.845
-4.845
-4.845
-4.85
-4.85
-4.85
-4.86
-4.86
-4.86
-4.86
-4.86
-4.86
-4.865
-4.865
-4.865
-4.865
-4.86
-4.865
-4.87
-4.865
-4.86
-4.86
-4.86
-4.855
-4.86
-4.865
-4.87
-4.87
-4.865
-4.865
-4.865
-4.87
-4.87
-4.87
-4.87
-4.865
-4.865
-4.865
-4.86
-4.86
-4.865
-4.86
-4.86
-4.855
-4.845
-4.83
-4.815
-4.8
-4.78
-4.77
-4.755
-4.75
-4.74
-4.745
-4.765
-4.775
-4.78
-4.765
-4.775
-4.775
-4.765
-4.765
-4.78
-4.79
-4.8
-4.81
-4.815
-4.835
-4.85
-4.855
-4.86
-4.865
-4.865
-4.87
-4.875
-4.875
-4.88
-4.875
-4.88
-4.87
-4.87
-4.865
-4.86
-4.85
-4.845
-4.83
-4.785
-4.7
-4.56
-4.415
-4.265
-4.31
-4.425
-4.545
-4.675
-4.76
-4.875
-5.06
-5.22
-5.355
-5.385
-5.26
-5.095
-4.965
-4.895
-4.86
-4.845
-4.835
-4.83
-4.815
-4.805
-4.805
-4.8
-4.79
-4.795
-4.785
-4.775
-4.775
-4.76
-4.765
-4.765
-4.76
-4.75
-4.74
-4.73
-4.73
-4.72
-4.715
-4.7
-4.695
-4.68
-4.67
-4.655
-4.645
-4.635
-4.615
-4.6
-4.585
-4.57
-4.55
-4.525
-4.515
-4.485
-4.46
-4.43
-4.41
-4.39
-4.355
-4.325
-4.29
-4.265
-4.245
-4.22
-4.21
-4.19
-4.18
-4.17
-4.16
-4.15
-4.145
-4.15
-4.155
-4.16
-4.18
-4.195
-4.215
-4.23
-4.26
-4.285
-4.325
-4.355
-4.395
-4.42
-4.46
-4.495
-4.525
-4.555
-4.58
-4.615
-4.635
-4.645
-4.655
-4.67
-4.695
-4.7
-4.705
-4.705
-4.715
-4.72
-4.72
-4.72
-4.715
-4.73
-4.72
-4.71
-4.72
-4.72
-4.715
-4.715
-4.715
-4.715
-4.72
-4.725
-4.715
-4.72
-4.72
-4.73
-4.73
-4.73
-4.735
-4.74
-4.745
-4.75
-4.755
-4.76
-4.77
-4.76
-4.775
-4.8
-4.795
-4.8
-4.81
-4.81
-4.81
-4.81
-4.825
-4.83
-4.825
-4.835
-4.84
-4.84
-4.84
-4.845
-4.85
-4.86
-4.85
-4.85
-4.85
-4.86
-4.86
-4.86
-4.865
-4.865
-4.86
-4.86
-4.865
-4.87
-4.87
-4.87
-4.86
-4.865
-4.87
-4.87
-4.865
-4.865
-4.86
-4.86
-4.865
-4.87
-4.87
-4.87
-4.87
-4.87
-4.865
-4.87
-4.87
-4.875
-4.865
-4.865
-4.865
-4.87
-4.865
-4.86
-4.85
-4.84
-4.83
-4.81
-4.795
-4.775
-4.77
-4.765
-4.76
-4.75
-4.76
-4.785
-4.8
-4.79
-4.78
-4.78
-4.775
-4.775
-4.79
-4.805
-4.815
-4.83
-4.835
-4.845
-4.86
-4.88
-4.89
-4.89
-4.89
-4.895
-4.895
-4.9
-4.905
-4.905
-4.9
-4.895
-4.895
-4.885
-4.89
-4.88
-4.875
-4.865
-4.85
-4.78
-4.655
-4.505
-4.33
-4.31
-4.42
-4.525
-4.645
-4.735
-4.83
-5.025
-5.215
-5.37
-5.44
-5.34
-5.17
-5.025
-4.955
-4.91
-4.88
-4.87
-4.85
-4.845
-4.835
-4.835
-4.83
-4.825
-4.825
-4.815
-4.81
-4.81
-4.8
-4.785
-4.79
-4.785
-4.785
-4.78
-4.775
-4.765
-4.76
-4.745
-4.74
-4.73
-4.72
-4.715
-4.7
-4.69
-4.675
-4.655
-4.645
-4.63
-4.61
-4.595
-4.57
-4.555
-4.54
-4.515
-4.485
-4.46
-4.43
-4.41
-4.39
-4.36
-4.335
-4.3
-4.285
-4.265
-4.245
-4.235
-4.225
-4.215
-4.21
-4.2
-4.2
-4.21
-4.2
-4.215
-4.23
-4.245
-4.265
-4.29
-4.31
-4.34
-4.375
-4.41
-4.43
-4.475
-4.515
-4.535
-4.57
-4.605
-4.62
-4.635
-4.65
-4.67
-4.685
-4.695
-4.705
-4.71
-4.715
-4.72
-4.72
-4.72
-4.72
-4.73
-4.725
-4.72
-4.715
-4.72
-4.725
-4.73
-4.73
-4.72
-4.715
-4.71
-4.72
-4.72
-4.72
-4.72
-4.72
-4.72
-4.725
-4.73
-4.73
-4.74
-4.75
-4.75
-4.76
-4.765
-4.765
-4.77
-4.765
-4.775
-4.775
-4.79
-4.79
-4.8
-4.805
-4.805
-4.81
-4.815
-4.815
-4.825
-4.83
-4.83
-4.84
-4.84
-4.84
-4.84
-4.84
-4.845
-4.845
-4.85
-4.845
-4.845
-4.85
-4.845
-4.85
-4.85
-4.845
-4.85
-4.85
-4.85
-4.85
-4.85
-4.85
-4.85
-4.86
-4.85
-4.86
-4.86
-4.855
-4.85
-4.855
-4.85
-4.85
-4.86
-4.865
-4.86
-4.845
-4.84
-4.845
-4.85
-4.845
-4.845
-4.83
-4.815
-4.805
-4.8
-4.78
-4.77
-4.76
-4.745
-4.735
-4.72
-4.73
-4.75
-4.77
-4.765
-4.75
-4.765
-4.77
-4.755
-4.76
-4.78
-4.79
-4.795
-4.81
-4.825
-4.84
-4.86
-4.865
-4.875
-4.875
-4.875
-4.88
-4.88
-4.88
-4.875
-4.88
-4.875
-4.88
-4.88
-4.87
-4.87
-4.86
-4.845
-4.83
-4.78
-4.675
-4.535
-4.36
-4.255
-4.33
-4.455
-4.545
-4.645
-4.68
-4.825
-5.035
-5.23
-5.395
-5.37
-5.22
-5.05
-4.945
-4.905
-4.87
-4.855
-4.84
-4.83
-4.815
-4.815
-4.815
-4.815
-4.81
-4.8
-4.795
-4.79
-4.785
-4.785
-4.785
-4.78
-4.775
-4.765
-4.765
-4.76
-4.75
-4.745
-4.74
-4.74
-4.72
-4.72
-4.715
-4.705
-4.685
-4.675
-4.67
-4.65
-4.64
-4.615
-4.59
-4.57
-4.545
-4.535
-4.505
-4.485
-4.46
-4.43
-4.41
-4.375
-4.355
-4.33
-4.31
-4.29
-4.265
-4.255
-4.245
-4.23
-4.225
-4.22
-4.22
-4.215
-4.22
-4.23
-4.25
-4.26
-4.275
-4.295
-4.32
-4.35
-4.375
-4.41
-4.44
-4.48
-4.515
-4.545
-4.58
-4.605
-4.63
-4.65
-4.675
-4.695
-4.71
-4.72
-4.73
-4.74
-4.745
-4.745
-4.75
-4.765
-4.765
-4.765
-4.765
-4.765
-4.765
-4.765
-4.76
-4.765
-4.76
-4.76
-4.745
-4.75
-4.765
-4.765
-4.76
-4.76
-4.765
-4.765
-4.765
-4.765
-4.775
-4.78
-4.78
-4.785
-4.79
-4.795
-4.795
-4.795
-4.805
-4.815
-4.825
-4.83
-4.83
-4.83
-4.84
-4.835
-4.845
-4.85
-4.845
-4.845
-4.85
-4.855
-4.86
-4.86
-4.86
-4.865
-4.87
-4.875
-4.875
-4.88
-4.88
-4.88
-4.875
-4.875
-4.88
-4.89
-4.89
-4.89
-4.89
-4.89
-4.895
-4.885
-4.89
-4.89
-4.89
-4.89
-4.89
-4.89
-4.89
-4.88
-4.88
-4.88
-4.88
-4.88
-4.87
-4.86
-4.85
-4.84
-4.825
-4.81
-4.805
-4.805
-4.79
-4.78
-4.785
-4.805
-4.83
-4.815
-4.805
-4.81
-4.825
-4.815
-4.81
-4.82
-4.825
-4.83
-4.835
-4.845
-4.875
-4.895
-4.895
-4.91
-4.91
-4.915
-4.92
-4.92
-4.925
-4.92
-4.925
-4.925
-4.92
-4.91
-4.905
-4.895
-4.895
-4.89
-4.865
-4.805
-4.71
-4.56
-4.39
-4.195
-4.1
-4.145
-4.22
-4.33
-4.47
-4.655
-4.91
-5.17
-5.35
-5.395
-5.32
-5.205
-5.09
-5.005
-4.955
-4.925
-4.91
-4.895
-4.895
-4.89
-4.88
-4.875
-4.87
-4.86
-4.86
-4.855
-4.85
-4.85
-4.845
-4.85
-4.84
-4.83
-4.835
-4.825
-4.815
-4.81
-4.8
-4.795
-4.785
-4.78
-4.765
-4.75
-4.745
-4.735
-4.72
-4.71
-4.695
-4.67
-4.655
-4.635
-4.61
-4.59
-4.56
-4.54
-4.525
-4.505
-4.475
-4.445
-4.42
-4.395
-4.385
-4.36
-4.34
-4.33
-4.32
-4.315
-4.3
-4.3
-4.3
-4.31
-4.31
-4.32
-4.34
-4.35
-4.365
-4.39
-4.41
-4.435
-4.46
-4.495
-4.52
-4.56
-4.59
-4.63
-4.655
-4.675
-4.695
-4.715
-4.74
-4.75
-4.765
-4.765
-4.785
-4.795
-4.8
-4.805
-4.81
-4.81
-4.805
-4.805
-4.805
-4.805
-4.81
-4.805
-4.81
-4.81
-4.805
-4.795
-4.795
-4.8
-4.795
-4.795
-4.795
-4.795
-4.79
-4.79
-4.79
-4.795
-4.795
-4.795
-4.805
-4.81
-4.81
-4.81
-4.825
-4.83
-4.83
-4.84
-4.845
-4.85
-4.85
-4.85
-4.86
-4.87
-4.865
-4.87
-4.87
-4.87
-4.875
-4.88
-4.875
-4.875
-4.875
-4.88
-4.89
-4.89
-4.89
-4.89
-4.89
-4.895
-4.895
-4.895
-4.89
-4.895
-4.895
-4.895
-4.895
-4.89
-4.895
-4.895
-4.9
-4.9
-4.895
-4.895
-4.89
-4.895
-4.895
-4.9
-4.895
-4.89
-4.895
-4.89
-4.88
-4.87
-4.855
-4.85
-4.84
-4.83
-4.815
-4.81
-4.795
-4.775
-4.775
-4.8
-4.825
-4.825
-4.805
-4.805
-4.825
-4.815
-4.805
-4.82
-4.835
-4.835
-4.83
-4.84
-4.85
-4.88
-4.895
-4.895
-4.905
-4.91
-4.905
-4.91
-4.91
-4.91
-4.91
-4.91
-4.895
-4.89
-4.89
-4.88
-4.88
-4.87
-4.85
-4.8
-4.705
-4.565
-4.395
-4.265
-4.32
-4.415
-4.525
-4.67
-4.75
-4.875
-5.075
-5.24
-5.365
-5.375
-5.245
-5.085
-4.975
-4.92
-4.895
-4.875
-4.865
-4.86
-4.85
-4.845
-4.84
-4.835
-4.835
-4.825
-4.815
-4.825
-4.81
-4.805
-4.805
-4.8
-4.795
-4.785
-4.775
-4.775
-4.77
-4.76
-4.745
-4.74
-4.73
-4.72
-4.715
-4.7
-4.675
-4.655
-4.65
-4.635
-4.615
-4.59
-4.56
-4.545
-4.525
-4.515
-4.48
-4.45
-4.425
-4.395
-4.375
-4.33
-4.3
-4.275
-4.245
-4.225
-4.205
-4.195
-4.19
-4.18
-4.17
-4.165
-4.16
-4.16
-4.17
-4.18
-4.195
-4.225
-4.245
-4.275
-4.315
-4.345
-4.39
-4.425
-4.46
-4.495
-4.535
-4.57
-4.6
-4.635
-4.655
-4.68
-4.7
-4.715
-4.73
-4.74
-4.745
-4.76
-4.765
-4.775
-4.78
-4.78
-4.78
-4.78
-4.785
-4.785
-4.78
-4.78
-4.775
-4.775
-4.765
-4.765
-4.765
-4.77
-4.765
-4.765
-4.765
-4.765
-4.765
-4.765
-4.77
-4.765
-4.765
-4.765
-4.775
-4.775
-4.775
-4.78
-4.785
-4.79
-4.79
-4.785
-4.795
-4.805
-4.81
-4.81
-4.815
-4.825
-4.835
-4.83
-4.83
-4.835
-4.84
-4.84
-4.85
-4.85
-4.86
-4.86
-4.865
-4.87
-4.87
-4.87
-4.87
-4.87
-4.875
-4.87
-4.87
-4.88
-4.875
-4.88
-4.875
-4.88
-4.88
-4.875
-4.875
-4.87
-4.875
-4.88
-4.88
-4.88
-4.875
-4.875
-4.875
-4.875
-4.875
-4.87
-4.865
-4.855
-4.845
-4.825
-4.805
-4.8
-4.795
-4.795
-4.785
-4.775
-4.795
-4.815
-4.815
-4.8
-4.8
-4.81
-4.82
-4.815
-4.825
-4.83
-4.835
-4.835
-4.845
-4.85
-4.88
-4.9
-4.905
-4.905
-4.905
-4.905
-4.905
-4.91
-4.91
-4.91
-4.91
-4.905
-4.905
-4.9
-4.895
-4.895
-4.89
-4.87
-4.825
-4.74
-4.62
-4.455
-4.29
-4.31
-4.395
-4.485
-4.615
-4.72
-4.85
-5.05
-5.215
-5.34
-5.385
-5.28
-5.13
-5
-4.935
-4.905
-4.88
-4.87
-4.865
-4.86
-4.85
-4.845
-4.84
-4.84
-4.845
-4.835
-4.825
-4.82
-4.815
-4.815
-4.805
-4.805
-4.8
-4.79
-4.785
-4.775
-4.77
-4.755
-4.74
-4.74
-4.735
-4.72
-4.71
-4.695
-4.675
-4.665
-4.65
-4.635
-4.615
-4.61
-4.585
-4.56
-4.54
-4.52
-4.495
-4.46
-4.43
-4.41
-4.38
-4.35
-4.325
-4.295
-4.275
-4.25
-4.225
-4.215
-4.2
-4.19
-4.19
-4.18
-4.18
-4.195
-4.195
-4.2
-4.22
-4.245
-4.265
-4.295
-4.33
-4.36
-4.395
-4.44
-4.475
-4.52
-4.555
-4.59
-4.62
-4.655
-4.68
-4.705
-4.72
-4.74
-4.75
-4.765
-4.775
-4.78
-4.79
-4.795
-4.8
-4.8
-4.805
-4.805
-4.8
-4.805
-4.8
-4.8
-4.8
-4.8
-4.795
-4.785
-4.79
-4.785
-4.785
-4.785
-4.79
-4.775
-4.775
-4.78
-4.785
-4.775
-4.775
-4.78
-4.78
-4.775
-4.78
-4.785
-4.785
-4.785
-4.785
-4.795
-4.8
-4.815
-4.815
-4.815
-4.81
-4.815
-4.825
-4.83
-4.83
-4.835
-4.84
-4.84
-4.845
-4.845
-4.845
-4.85
-4.855
-4.86
-4.865
-4.865
-4.86
-4.86
-4.86
-4.87
-4.86
-4.865
-4.87
-4.87
-4.87
-4.87
-4.87
-4.87
-4.875
-4.87
-4.87
-4.87
-4.875
-4.87
-4.87
-4.87
-4.87
-4.865
-4.855
-4.85
-4.84
-4.83
-4.81
-4.805
-4.805
-4.805
-4.79
-4.775
-4.79
-4.815
-4.825
-4.81
-4.8
-4.805
-4.815
-4.805
-4.805
-4.81
-4.81
-4.805
-4.805
-4.81
-4.83
-4.86
-4.865
-4.87
-4.875
-4.88
-4.88
-4.89
-4.88
-4.88
-4.88
-4.88
-4.87
-4.87
-4.87
-4.865
-4.855
-4.85
-4.825
-4.765
-4.665
-4.525
-4.35
-4.135
-4.05
-4.115
-4.18
-4.285
-4.43
-4.63
-4.895
-5.13
-5.255
-5.28
-5.215
-5.12
-5.025
-4.945
-4.9
-4.88
-4.87
-4.86
-4.85
-4.845
-4.845
-4.85
-4.845
-4.835
-4.83
-4.82
-4.825
-4.825
-4.815
-4.81
-4.805
-4.8
-4.8
-4.785
-4.785
-4.785
-4.77
-4.765
-4.76
-4.745
-4.74
-4.73
-4.715
-4.705
-4.695
-4.685
-4.67
-4.655
-4.64
-4.62
-4.605
-4.58
-4.56
-4.54
-4.52
-4.49
-4.46
-4.435
-4.415
-4.385
-4.355
-4.34
-4.32
-4.3
-4.29
-4.28
-4.265
-4.26
-4.26
-4.26
-4.26
-4.27
-4.285
-4.3
-4.32
-4.34
-4.36
-4.395
-4.425
-4.46
-4.505
-4.535
-4.57
-4.6
-4.635
-4.655
-4.68
-4.705
-4.725
-4.745
-4.765
-4.765
-4.785
-4.795
-4.805
-4.805
-4.805
-4.805
-4.81
-4.82
-4.815
-4.815
-4.82
-4.815
-4.81
-4.805
-4.8
-4.805
-4.8
-4.795
-4.79
-4.78
-4.78
-4.775
-4.775
-4.765
-4.765
-4.77
-4.775
-4.775
-4.765
-4.77
-4.77
-4.775
-4.775
-4.78
-4.785
-4.785
-4.795
-4.8
-4.8
-4.81
-4.815
-4.815
-4.825
-4.825
-4.83
-4.83
-4.835
-4.84
-4.85
-4.85
-4.85
-4.85
-4.855
-4.85
-4.855
-4.855
-4.86
-4.87
-4.865
-4.87
-4.865
-4.865
-4.875
-4.875
-4.875
-4.875
-4.87
-4.87
-4.875
-4.875
-4.88
-4.87
-4.865
-4.87
-4.875
-4.87
-4.87
-4.87
-4.87
-4.87
-4.865
-4.86
-4.85
-4.835
-4.825
-4.805
-4.785
-4.785
-4.785
-4.78
-4.77
-4.775
-4.795
-4.815
-4.815
-4.805
-4.805
-4.825
-4.825
-4.805
-4.805
-4.81
-4.815
-4.81
-4.81
-4.82
-4.84
-4.86
-4.865
-4.87
-4.865
-4.87
-4.87
-4.875
-4.875
-4.875
-4.875
-4.875
-4.87
-4.865
-4.86
-4.85
-4.845
-4.84
-4.81
-4.74
-4.615
-4.465
-4.295
-4.23
-4.325
-4.415
-4.49
-4.595
-4.7
-4.88
-5.075
-5.215
-5.285
-5.26
-5.135
-5.02
-4.925
-4.89
-4.865
-4.845
-4.83
-4.825
-4.825
-4.825
-4.805
-4.805
-4.8
-4.805
-4.8
-4.795
-4.785
-4.78
-4.775
-4.77
-4.765
-4.765
-4.76
-4.75
-4.745
-4.73
-4.73
-4.72
-4.71
-4.7
-4.685
-4.675
-4.655
-4.645
-4.63
-4.61
-4.595
-4.57
-4.55
-4.525
-4.505
-4.48
-4.455
-4.425
-4.395
-4.36
-4.335
-4.295
-4.265
-4.235
-4.21
-4.185
-4.155
-4.135
-4.125
-4.115
-4.1
-4.095
-4.1
-4.11
-4.115
-4.13
-4.135
-4.155
-4.18
-4.215
-4.255
-4.295
-4.34
-4.39
-4.43
-4.475
-4.515
-4.55
-4.59
-4.62
-4.65
-4.675
-4.695
-4.705
-4.72
-4.745
-4.745
-4.76
-4.765
-4.78
-4.785
-4.78
-4.785
-4.785
-4.795
-4.805
-4.8
-4.795
-4.79
-4.795
-4.795
-4.795
-4.795
-4.795
-4.785
-4.795
-4.79
-4.785
-4.78
-4.785
-4.785
-4.78
-4.775
-4.78
-4.785
-4.785
-4.78
-4.78
-4.785
-4.785
-4.79
-4.785
-4.795
-4.795
-4.795
-4.795
-4.805
-4.805
-4.81
-4.81
-4.815
-4.83
-4.825
-4.825
-4.835
-4.835
-4.84
-4.845
-4.845
-4.85
-4.85
-4.85
-4.855
-4.855
-4.86
-4.865
-4.865
-4.87
-4.87
-4.87
-4.875
-4.875
-4.87
-4.87
-4.875
-4.87
-4.875
-4.875
-4.875
-4.88
-4.875
-4.865
-4.875
-4.875
-4.88
-4.88
-4.875
-4.87
-4.875
-4.875
-4.875
-4.875
-4.875
-4.87
-4.87
-4.86
-4.85
-4.845
-4.825
-4.81
-4.795
-4.785
-4.795
-4.79
-4.78
-4.795
-4.81
-4.82
-4.81
-4.805
-4.815
-4.825
-4.815
-4.81
-4.81
-4.81
-4.815
-4.825
-4.825
-4.84
-4.87
-4.88
-4.88
-4.89
-4.88
-4.88
-4.895
-4.89
-4.895
-4.895
-4.895
-4.88
-4.875
-4.87
-4.865
-4.865
-4.85
-4.84
-4.79
-4.695
-4.565
-4.405
-4.235
-4.275
-4.35
-4.42
-4.525
-4.6
-4.74
-4.96
-5.13
-5.26
-5.305
-5.205
-5.065
-4.97
-4.91
-4.88
-4.865
-4.86
-4.845
-4.84
-4.83
-4.83
-4.83
-4.815
-4.815
-4.815
-4.81
-4.805
-4.8
-4.795
-4.795
-4.795
-4.785
-4.77
-4.77
-4.765
-4.76
-4.745
-4.735
-4.72
-4.72
-4.71
-4.69
-4.675
-4.665
-4.65
-4.635
-4.61
-4.6
-4.58
-4.555
-4.525
-4.505
-4.48
-4.46
-4.43
-4.395
-4.36
-4.33
-4.31
-4.275
-4.245
-4.21
-4.19
-4.17
-4.15
-4.135
-4.125
-4.115
-4.115
-4.125
-4.125
-4.13
-4.135
-4.16
-4.19
-4.215
-4.245
-4.285
-4.33
-4.375
-4.41
-4.46
-4.505
-4.54
-4.58
-4.615
-4.645
-4.675
-4.7
-4.715
-4.74
-4.76
-4.775
-4.78
-4.795
-4.8
-4.81
-4.805
-4.805
-4.815
-4.825
-4.83
-4.83
-4.825
-4.815
-4.83
-4.83
-4.83
-4.83
-4.83
-4.83
-4.83
-4.825
-4.825
-4.815
-4.825
-4.825
-4.825
-4.82
-4.815
-4.815
-4.815
-4.815
-4.815
-4.82
-4.825
-4.825
-4.825
-4.83
-4.83
-4.83
-4.84
-4.835
-4.84
-4.845
-4.85
-4.85
-4.85
-4.85
-4.855
-4.87
-4.87
-4.87
-4.87
-4.875
-4.88
-4.88
-4.89
-4.895
-4.9
-4.895
-4.9
-4.895
-4.895
-4.905
-4.91
-4.91
-4.915
-4.91
-4.915
-4.92
-4.92
-4.915
-4.91
-4.91
-4.91
-4.915
-4.915
-4.92
-4.92
-4.92
-4.92
-4.925
-4.925
-4.92
-4.91
-4.92
-4.915
-4.905
-4.91
-4.91
-4.91
-4.915
-4.91
-4.905
-4.9
-4.895
-4.88
-4.875
-4.86
-4.84
-4.835
-4.83
-4.825
-4.815
-4.81
-4.815
-4.835
-4.84
-4.835
-4.835
-4.845
-4.85
-4.835
-4.835
-4.84
-4.845
-4.84
-4.84
-4.85
-4.875
-4.9
-4.9
-4.9
-4.905
-4.91
-4.92
-4.915
-4.91
-4.905
-4.905
-4.9
-4.895
-4.89
-4.88
-4.88
-4.87
-4.86
-4.83
-4.78
-4.685
-4.545
-4.365
-4.235
-4.29
-4.375
-4.46
-4.56
-4.63
-4.745
-4.94
-5.115
-5.275
-5.33
-5.235
-5.075
-4.965
-4.905
-4.875
-4.86
-4.845
-4.84
-4.84
-4.83
-4.83
-4.83
-4.835
-4.825
-4.81
-4.81
-4.8
-4.8
-4.795
-4.795
-4.785
-4.78
-4.775
-4.765
-4.75
-4.75
-4.735
-4.73
-4.73
-4.715
-4.7
-4.695
-4.68
-4.665
-4.655
-4.635
-4.62
-4.61
-4.59
-4.57
-4.54
-4.52
-4.49
-4.47
-4.44
-4.415
-4.385
-4.35
-4.325
-4.29
-4.265
-4.23
-4.2
-4.185
-4.16
-4.15
-4.13
-4.115
-4.11
-4.115
-4.115
-4.105
-4.115
-4.135
-4.15
-4.17
-4.2
-4.23
-4.27
-4.31
-4.355
-4.395
-4.44
-4.485
-4.525
-4.555
-4.59
-4.63
-4.655
-4.68
-4.7
-4.715
-4.72
-4.735
-4.76
-4.76
-4.765
-4.775
-4.785
-4.785
-4.785
-4.79
-4.8
-4.795
-4.785
-4.795
-4.795
-4.8
-4.795
-4.795
-4.795
-4.8
-4.8
-4.795
-4.8
-4.8
-4.8
-4.79
-4.78
-4.78
-4.78
-4.785
-4.785
-4.78
-4.785
-4.785
-4.785
-4.79
-4.785
-4.79
-4.795
-4.8
-4.8
-4.8
-4.81
-4.815
-4.815
-4.815
-4.825
-4.83
-4.84
-4.845
-4.845
-4.845
-4.85
-4.85
-4.86
-4.86
-4.865
-4.865
-4.87
-4.875
-4.875
-4.875
-4.875
-4.875
-4.875
-4.89
-4.885
-4.88
-4.88
-4.885
-4.89
-4.89
-4.88
-4.88
-4.88
-4.885
-4.89
-4.89
-4.89
-4.89
-4.885
-4.89
-4.89
-4.88
-4.88
-4.89
-4.885
-4.88
-4.875
-4.875
-4.88
-4.88
-4.88
-4.875
-4.875
-4.875
-4.87
-4.87
-4.87
-4.86
-4.86
-4.85
-4.835
-4.815
-4.8
-4.79
-4.79
-4.79
-4.775
-4.765
-4.77
-4.79
-4.805
-4.795
-4.795
-4.805
-4.81
-4.805
-4.795
-4.795
-4.8
-4.81
-4.81
-4.815
-4.83
-4.85
-4.86
-4.86
-4.87
-4.87
-4.87
-4.875
-4.87
-4.87
-4.87
-4.865
-4.87
-4.85
-4.85
-4.85
-4.845
-4.845
-4.83
-4.795
-4.72
-4.605
-4.445
-4.275
-4.265
-4.345
-4.44
-4.555
-4.65
-4.71
-4.87
-5.06
-5.23
-5.315
-5.24
-5.07
-4.95
-4.89
-4.86
-4.845
-4.83
-4.825
-4.81
-4.815
-4.805
-4.8
-4.795
-4.79
-4.795
-4.8
-4.79
-4.78
-4.775
-4.775
-4.77
-4.765
-4.76
-4.75
-4.75
-4.74
-4.72
-4.725
-4.715
-4.71
-4.7
-4.69
-4.675
-4.665
-4.655
-4.635
-4.62
-4.605
-4.58
-4.57
-4.55
-4.525
-4.49
-4.46
-4.44
-4.415
-4.39
-4.35
-4.325
-4.3
-4.265
-4.245
-4.215
-4.195
-4.18
-4.155
-4.14
-4.13
-4.12
-4.115
-4.115
-4.115
-4.13
-4.145
-4.16
-4.19
-4.215
-4.25
-4.285
-4.33
-4.365
-4.405
-4.45
-4.495
-4.535
-4.57
-4.61
-4.635
-4.655
-4.675
-4.705
-4.725
-4.73
-4.74
-4.76
-4.765
-4.775
-4.775
-4.775
-4.78
-4.785
-4.8
-4.795
-4.795
-4.795
-4.795
-4.795
-4.785
-4.795
-4.795
-4.8
-4.795
-4.785
-4.795
-4.795
-4.785
-4.785
-4.785
-4.78
-4.785
-4.785
-4.785
-4.78
-4.78
-4.785
-4.785
-4.785
-4.79
-4.795
-4.81
-4.815
-4.81
-4.81
-4.81
-4.82
-4.825
-4.83
-4.84
-4.845
-4.845
-4.845
-4.845
-4.85
-4.86
-4.87
-4.87
-4.87
-4.875
-4.875
-4.875
-4.875
-4.88
-4.88
-4.88
-4.885
-4.89
-4.895
-4.895
-4.895
-4.895
-4.895
-4.895
-4.895
-4.89
-4.895
-4.905
-4.895
-4.895
-4.895
-4.895
-4.89
-4.89
-4.895
-4.895
-4.89
-4.89
-4.88
-4.88
-4.89
-4.89
-4.89
-4.89
-4.885
-4.88
-4.88
-4.88
-4.88
-4.875
-4.875
-4.875
-4.88
-4.87
-4.865
-4.865
-4.85
-4.835
-4.825
-4.8
-4.795
-4.785
-4.785
-4.775
-4.765
-4.78
-4.8
-4.81
-4.795
-4.795
-4.81
-4.81
-4.81
-4.81
-4.81
-4.815
-4.825
-4.835
-4.84
-4.865
-4.875
-4.88
-4.88
-4.88
-4.88
-4.88
-4.88
-4.88
-4.88
-4.875
-4.875
-4.87
-4.875
-4.865
-4.85
-4.85
-4.845
-4.81
-4.72
-4.59
-4.435
-4.29
-4.345
-4.455
-4.55
-4.655
-4.685
-4.78
-4.975
-5.165
-5.315
-5.325
-5.19
-5.025
-4.935
-4.89
-4.865
-4.85
-4.83
-4.825
-4.825
-4.825
-4.81
-4.805
-4.81
-4.815
-4.805
-4.795
-4.795
-4.79
-4.785
-4.785
-4.775
-4.77
-4.765
-4.765
-4.76
-4.745
-4.735
-4.72
-4.715
-4.705
-4.7
-4.685
-4.675
-4.655
-4.645
-4.64
-4.615
-4.6
-4.585
-4.565
-4.54
-4.51
-4.485
-4.46
-4.44
-4.405
-4.38
-4.355
-4.325
-4.285
-4.26
-4.23
-4.215
-4.19
-4.17
-4.155
-4.15
-4.135
-4.135
-4.135
-4.135
-4.145
-4.16
-4.18
-4.2
-4.22
-4.255
-4.29
-4.33
-4.365
-4.41
-4.46
-4.495
-4.54
-4.57
-4.595
-4.635
-4.655
-4.68
-4.705
-4.72
-4.74
-4.745
-4.75
-4.765
-4.78
-4.785
-4.79
-4.785
-4.79
-4.785
-4.795
-4.8
-4.8
-4.795
-4.795
-4.8
-4.8
-4.795
-4.8
-4.795
-4.785
-4.785
-4.79
-4.795
-4.795
-4.785
-4.79
-4.79
-4.795
-4.785
-4.795
-4.795
-4.795
-4.8
-4.805
-4.81
-4.815
-4.815
-4.825
-4.83
-4.83
-4.83
-4.845
-4.845
-4.85
-4.86
-4.865
-4.87
-4.87
-4.875
-4.87
-4.87
-4.875
-4.88
-4.88
-4.875
-4.88
-4.88
-4.895
-4.895
-4.89
-4.895
-4.89
-4.895
-4.9
-4.895
-4.895
-4.9
-4.9
-4.895
-4.9
-4.895
-4.895
-4.895
-4.895
-4.905
-4.905
-4.905
-4.9
-4.9
-4.9
-4.895
-4.895
-4.89
-4.89
-4.895
-4.89
-4.88
-4.88
-4.885
-4.88
-4.88
-4.875
-4.88
-4.875
-4.88
-4.875
-4.86
-4.855
-4.84
-4.825
-4.805
-4.8
-4.795
-4.78
-4.765
-4.75
-4.765
-4.785
-4.8
-4.79
-4.795
-4.81
-4.81
-4.8
-4.795
-4.805
-4.81
-4.82
-4.825
-4.835
-4.845
-4.865
-4.87
-4.87
-4.87
-4.87
-4.875
-4.87
-4.87
-4.875
-4.88
-4.875
-4.865
-4.87
-4.865
-4.85
-4.845
-4.835
-4.81
-4.745
-4.63
-4.48
-4.3
-4.285
-4.4
-4.505
-4.615
-4.67
-4.7
-4.85
-5.055
-5.245
-5.35
-5.285
-5.13
-4.98
-4.895
-4.87
-4.845
-4.84
-4.825
-4.81
-4.8
-4.8
-4.8
-4.795
-4.79
-4.785
-4.785
-4.785
-4.775
-4.775
-4.77
-4.765
-4.75
-4.75
-4.75
-4.74
-4.735
-4.72
-4.71
-4.705
-4.7
-4.68
-4.67
-4.67
-4.665
-4.645
-4.625
-4.6
-4.595
-4.57
-4.55
-4.53
-4.505
-4.485
-4.46
-4.425
-4.405
-4.375
-4.345
-4.32
-4.285
-4.255
-4.22
-4.2
-4.185
-4.165
-4.15
-4.135
-4.125
-4.115
-4.115
-4.125
-4.13
-4.14
-4.155
-4.18
-4.195
-4.215
-4.25
-4.29
-4.325
-4.375
-4.415
-4.45
-4.49
-4.525
-4.57
-4.595
-4.61
-4.645
-4.665
-4.69
-4.7
-4.725
-4.735
-4.75
-4.76
-4.75
-4.75
-4.75
-4.75
-4.765
-4.765
-4.76
-4.765
-4.775
-4.775
-4.765
-4.77
-4.765
-4.77
-4.76
-4.76
-4.76
-4.76
-4.76
-4.76
-4.76
-4.75
-4.765
-4.76
-4.76
-4.76
-4.765
-4.77
-4.77
-4.775
-4.775
-4.785
-4.785
-4.785
-4.785
-4.795
-4.805
-4.81
-4.81
-4.81
-4.81
-4.82
-4.83
-4.835
-4.84
-4.83
-4.84
-4.84
-4.835
-4.845
-4.85
-4.845
-4.85
-4.85
-4.86
-4.855
-4.85
-4.85
-4.86
-4.86
-4.86
-4.86
-4.865
-4.87
-4.87
-4.87
-4.865
-4.865
-4.87
-4.865
-4.86
-4.86
-4.86
-4.86
-4.86
-4.86
-4.855
-4.86
-4.85
-4.86
-4.865
-4.865
-4.87
-4.87
-4.87
-4.865
-4.865
-4.865
-4.86
-4.86
-4.86
-4.86
-4.85
-4.85
-4.835
-4.815
-4.8
-4.79
-4.78
-4.77
-4.75
-4.745
-4.735
-4.74
-4.76
-4.78
-4.775
-4.765
-4.775
-4.785
-4.785
-4.785
-4.79
-4.805
-4.81
-4.815
-4.825
-4.825
-4.85
-4.86
-4.865
-4.87
-4.865
-4.875
-4.875
-4.875
-4.87
-4.87
-4.865
-4.865
-4.87
-4.865
-4.85
-4.85
-4.845
-4.835
-4.795
-4.715
-4.57
-4.405
-4.265
-4.34
-4.46
-4.555
-4.655
-4.67
-4.725
-4.925
-5.12
-5.3
-5.355
-5.235
-5.075
-4.955
-4.9
-4.865
-4.845
-4.84
-4.83
-4.825
-4.825
-4.815
-4.81
-4.805
-4.8
-4.795
-4.795
-4.795
-4.795
-4.785
-4.78
-4.775
-4.775
-4.765
-4.765
-4.76
-4.745
-4.735
-4.725
-4.72
-4.715
-4.7
-4.695
-4.685
-4.67
-4.655
-4.64
-4.63
-4.615
-4.6
-4.57
-4.555
-4.535
-4.515
-4.485
-4.46
-4.425
-4.4
-4.375
-4.35
-4.32
-4.29
-4.265
-4.245
-4.22
-4.2
-4.185
-4.17
-4.165
-4.155
-4.155
-4.155
-4.155
-4.165
-4.18
-4.195
-4.215
-4.235
-4.26
-4.29
-4.325
-4.36
-4.405
-4.45
-4.485
-4.525
-4.56
-4.59
-4.62
-4.65
-4.675
-4.695
-4.715
-4.72
-4.73
-4.74
-4.75
-4.765
-4.765
-4.765
-4.77
-4.775
-4.775
-4.775
-4.78
-4.795
-4.795
-4.78
-4.765
-4.765
-4.775
-4.775
-4.78
-4.785
-4.785
-4.78
-4.765
-4.76
-4.765
-4.765
-4.765
-4.775
-4.78
-4.785
-4.795
-4.805
-4.81
-4.815
-4.815
-4.825
-4.825
-4.815
-4.825
-4.84
-4.845
-4.85
-4.86
-4.86
-4.865
-4.865
-4.875
-4.875
-4.88
-4.89
-4.9
-4.895
-4.9
-4.9
-4.895
-4.895
-4.905
-4.91
-4.92
-4.925
-4.935
-4.925
-4.915
-4.92
-4.925
-4.925
-4.925
-4.925
-4.92
-4.925
-4.92
-4.92
-4.915
-4.92
-4.92
-4.925
-4.93
-4.92
-4.92
-4.92
-4.915
-4.915
-4.92
-4.915
-4.91
-4.91
-4.91
-4.905
-4.91
-4.905
-4.9
-4.895
-4.895
-4.88
-4.86
-4.84
-4.83
-4.815
-4.81
-4.8
-4.785
-4.79
-4.805
-4.83
-4.83
-4.815
-4.815
-4.83
-4.835
-4.825
-4.83
-4.83
-4.84
-4.84
-4.85
-4.85
-4.88
-4.89
-4.895
-4.895
-4.9
-4.895
-4.905
-4.91
-4.915
-4.91
-4.905
-4.905
-4.9
-4.89
-4.88
-4.88
-4.875
-4.87
-4.83
-4.745
-4.62
-4.46
-4.265
-4.18
-4.245
-4.33
-4.42
-4.53
-4.67
-4.88
-5.1
-5.275
-5.36
-5.3
-5.18
-5.06
-4.965
-4.925
-4.895
-4.875
-4.86
-4.85
-4.845
-4.83
-4.83
-4.82
-4.81
-4.815
-4.815
-4.81
-4.81
-4.8
-4.795
-4.795
-4.79
-4.785
-4.78
-4.775
-4.775
-4.765
-4.765
-4.745
-4.735
-4.72
-4.71
-4.69
-4.675
-4.67
-4.655
-4.635
-4.635
-4.615
-4.59
-4.555
-4.535
-4.525
-4.505
-4.46
-4.425
-4.4
-4.38
-4.35
-4.335
-4.31
-4.285
-4.255
-4.23
-4.2
-4.19
-4.18
-4.18
-4.165
-4.165
-4.17
-4.175
-4.18
-4.19
-4.205
-4.235
-4.265
-4.285
-4.32
-4.35
-4.39
-4.425
-4.475
-4.515
-4.55
-4.585
-4.61
-4.64
-4.665
-4.685
-4.7
-4.705
-4.715
-4.735
-4.75
-4.765
-4.78
-4.77
-4.765
-4.75
-4.75
-4.75
-4.75
-4.76
-4.765
-4.765
-4.77
-4.775
-4.765
-4.765
-4.76
-4.76
-4.76
-4.76
-4.745
-4.75
-4.75
-4.76
-4.76
-4.75
-4.75
-4.76
-4.76
-4.76
-4.765
-4.775
-4.785
-4.785
-4.785
-4.79
-4.785
-4.795
-4.805
-4.8
-4.805
-4.81
-4.83
-4.84
-4.84
-4.845
-4.84
-4.84
-4.85
-4.85
-4.85
-4.855
-4.84
-4.835
-4.83
-4.83
-4.85
-4.86
-4.85
-4.85
-4.86
-4.865
-4.87
-4.865
-4.86
-4.85
-4.85
-4.85
-4.86
-4.86
-4.85
-4.86
-4.86
-4.86
-4.85
-4.86
-4.865
-4.86
-4.85
-4.855
-4.86
-4.85
-4.85
-4.85
-4.845
-4.845
-4.845
-4.835
-4.82
-4.805
-4.79
-4.775
-4.775
-4.775
-4.76
-4.74
-4.74
-4.765
-4.785
-4.785
-4.775
-4.78
-4.795
-4.79
-4.785
-4.79
-4.795
-4.805
-4.815
-4.83
-4.83
-4.855
-4.87
-4.87
-4.88
-4.88
-4.89
-4.875
-4.865
-4.86
-4.86
-4.865
-4.86
-4.855
-4.85
-4.85
-4.85
-4.84
-4.835
-4.795
-4.72
-4.58
-4.38
-4.22
-4.265
-4.385
-4.485
-4.61
-4.7
-4.815
-5.005
-5.18
-5.32
-5.36
-5.245
-5.085
-4.96
-4.895
-4.86
-4.84
-4.845
-4.84
-4.83
-4.815
-4.805
-4.8
-4.795
-4.79
-4.785
-4.775
-4.765
-4.75
-4.77
-4.765
-4.76
-4.74
-4.745
-4.745
-4.74
-4.72
-4.71
-4.7
-4.685
-4.68
-4.675
-4.655
-4.635
-4.63
-4.615
-4.6
-4.57
-4.55
-4.525
-4.515
-4.505
-4.475
-4.45
-4.42
-4.39
-4.355
-4.31
-4.285
-4.255
-4.23
-4.21
-4.19
-4.16
-4.135
-4.125
-4.1
-4.09
-4.09
-4.095
-4.105
-4.105
-4.115
-4.135
-4.165
-4.18
-4.21
-4.245
-4.28
-4.32
-4.355
-4.395
-4.44
-4.49
-4.525
-4.56
-4.59
-4.615
-4.65
-4.67
-4.685
-4.71
-4.715
-4.72
-4.735
-4.74
-4.75
-4.76
-4.76
-4.76
-4.765
-4.765
-4.765
-4.77
-4.765
-4.77
-4.77
-4.775
-4.77
-4.76
-4.76
-4.765
-4.765
-4.76
-4.76
-4.765
-4.765
-4.765
-4.76
-4.76
-4.765
-4.765
-4.765
-4.775
-4.79
-4.795
-4.78
-4.775
-4.775
-4.78
-4.785
-4.79
-4.79
-4.795
-4.805
-4.81
-4.81
-4.81
-4.81
-4.815
-4.825
-4.83
-4.845
-4.855
-4.845
-4.845
-4.845
-4.85
-4.85
-4.85
-4.85
-4.85
-4.86
-4.86
-4.86
-4.86
-4.86
-4.86
-4.865
-4.87
-4.87
-4.865
-4.865
-4.87
-4.875
-4.87
-4.865
-4.855
-4.855
-4.86
-4.86
-4.87
-4.87
-4.865
-4.865
-4.85
-4.845
-4.84
-4.84
-4.825
-4.8
-4.8
-4.785
-4.775
-4.76
-4.745
-4.745
-4.765
-4.785
-4.785
-4.775
-4.775
-4.795
-4.785
-4.79
-4.805
-4.81
-4.81
-4.81
-4.815
-4.825
-4.85
-4.865
-4.88
-4.89
-4.895
-4.89
-4.885
-4.88
-4.89
-4.895
-4.89
-4.88
-4.87
-4.865
-4.875
-4.87
-4.85
-4.84
-4.795
-4.72
-4.59
-4.43
-4.265
-4.325
-4.455
-4.56
-4.695
-4.75
-4.83
-5.005
-5.195
-5.345
-5.39
-5.28
-5.11
-4.975
-4.915
-4.875
-4.86
-4.84
-4.83
-4.83
-4.83
-4.815
-4.81
-4.815
-4.825
-4.815
-4.815
-4.8
-4.795
-4.795
-4.795
-4.785
-4.785
-4.78
-4.765
-4.76
-4.75
-4.745
-4.735
-4.73
-4.715
-4.71
-4.685
-4.675
-4.67
-4.655
-4.645
-4.62
-4.59
-4.57
-4.57
-4.535
-4.515
-4.48
-4.46
-4.44
-4.415
-4.375
-4.34
-4.315
-4.275
-4.255
-4.23
-4.215
-4.19
-4.18
-4.155
-4.155
-4.16
-4.155
-4.145
-4.15
-4.16
-4.18
-4.19
-4.2
-4.235
-4.275
-4.32
-4.345
-4.38
-4.415
-4.45
-4.485
-4.525
-4.565
-4.61
-4.635
-4.645
-4.67
-4.685
-4.715
-4.73
-4.74
-4.75
-4.76
-4.775
-4.785
-4.785
-4.775
-4.765
-4.775
-4.78
-4.79
-4.785
-4.785
-4.785
-4.785
-4.795
-4.78
-4.78
-4.775
-4.78
-4.78
-4.785
-4.78
-4.78
-4.78
-4.78
-4.78
-4.77
-4.765
-4.765
-4.765
-4.77
-4.775
-4.775
-4.785
-4.78
-4.78
-4.785
-4.795
-4.8
-4.805
-4.805
-4.81
-4.815
-4.825
-4.83
-4.83
-4.83
-4.84
-4.85
-4.85
-4.845
-4.84
-4.85
-4.855
-4.855
-4.855
-4.85
-4.85
-4.86
-4.87
-4.865
-4.85
-4.845
-4.86
-4.865
-4.865
-4.85
-4.865
-4.875
-4.88
-4.865
-4.87
-4.87
-4.87
-4.86
-4.87
-4.865
-4.875
-4.88
-4.88
-4.88
-4.875
-4.875
-4.87
-4.855
-4.84
-4.825
-4.82
-4.815
-4.8
-4.785
-4.77
-4.75
-4.75
-4.765
-4.78
-4.785
-4.775
-4.79
-4.81
-4.805
-4.805
-4.825
-4.83
-4.835
-4.825
-4.84
-4.845
-4.87
-4.895
-4.895
-4.9
-4.895
-4.905
-4.91
-4.91
-4.895
-4.89
-4.895
-4.89
-4.895
-4.875
-4.88
-4.875
-4.87
-4.855
-4.825
-4.735
-4.59
-4.405
-4.275
-4.375
-4.515
-4.615
-4.71
-4.745
-4.865
-5.06
-5.235
-5.375
-5.37
-5.225
-5.055
-4.965
-4.925
-4.91
-4.89
-4.865
-4.85
-4.855
-4.85
-4.85
-4.85
-4.845
-4.83
-4.83
-4.815
-4.815
-4.815
-4.81
-4.8
-4.8
-4.785
-4.78
-4.775
-4.765
-4.765
-4.75
-4.74
-4.735
-4.72
-4.71
-4.7
-4.695
-4.67
-4.65
-4.635
-4.63
-4.6
-4.58
-4.55
-4.525
-4.515
-4.505
-4.48
-4.44
-4.405
-4.385
-4.36
-4.33
-4.31
-4.275
-4.245
-4.235
-4.205
-4.19
-4.19
-4.19
-4.165
-4.155
-4.155
-4.155
-4.15
-4.16
-4.18
-4.2
-4.225
-4.245
-4.275
-4.3
-4.34
-4.39
-4.42
-4.46
-4.49
-4.53
-4.57
-4.6
-4.625
-4.65
-4.665
-4.695
-4.7
-4.71
-4.72
-4.735
-4.74
-4.745
-4.745
-4.74
-4.76
-4.75
-4.76
-4.75
-4.76
-4.76
-4.76
-4.76
-4.755
-4.75
-4.745
-4.735
-4.745
-4.75
-4.745
-4.745
-4.74
-4.745
-4.75
-4.75
-4.75
-4.76
-4.75
-4.75
-4.775
-4.78
-4.78
-4.775
-4.775
-4.785
-4.795
-4.79
-4.795
-4.81
-4.815
-4.825
-4.825
-4.83
-4.84
-4.825
-4.835
-4.84
-4.84
-4.85
-4.86
-4.86
-4.85
-4.86
-4.86
-4.86
-4.86
-4.865
-4.875
-4.875
-4.87
-4.88
-4.875
-4.88
-4.875
-4.875
-4.88
-4.89
-4.89
-4.89
-4.89
-4.895
-4.89
-4.89
-4.88
-4.895
-4.89
-4.885
-4.885
-4.88
-4.88
-4.855
-4.85
-4.84
-4.825
-4.805
-4.805
-4.775
-4.765
-4.765
-4.75
-4.78
-4.795
-4.78
-4.775
-4.8
-4.805
-4.815
-4.805
-4.81
-4.81
-4.845
-4.86
-4.865
-4.85
-4.865
-4.88
-4.88
-4.895
-4.895
-4.89
-4.9
-4.905
-4.89
-4.9
-4.895
-4.89
-4.895
-4.9
-4.88
-4.87
-4.855
-4.835
-4.775
-4.665
-4.49
-4.3
-4.26
-4.35
-4.425
-4.54
-4.615
-4.7
-4.915
-5.12
-5.305
-5.405
-5.31
-5.15
-5.005
-4.935
-4.9
-4.875
-4.87
-4.865
-4.86
-4.85
-4.84
-4.84
-4.845
-4.84
-4.83
-4.825
-4.83
-4.81
-4.805
-4.805
-4.805
-4.805
-4.795
-4.785
-4.78
-4.77
-4.77
-4.76
-4.745
-4.75
-4.73
-4.715
-4.705
-4.705
-4.7
-4.675
-4.655
-4.65
-4.635
-4.615
-4.59
-4.57
-4.555
-4.535
-4.505
-4.495
-4.46
-4.445
-4.415
-4.39
-4.365
-4.34
-4.33
-4.31
-4.3
-4.29
-4.265
-4.255
-4.255
-4.255
-4.245
-4.255
-4.265
-4.275
-4.285
-4.305
-4.335
-4.35
-4.38
-4.41
-4.45
-4.485
-4.505
-4.54
-4.58
-4.61
-4.64
-4.655
-4.68
-4.7
-4.72
-4.745
-4.745
-4.745
-4.76
-4.765
-4.775
-4.785
-4.79
-4.775
-4.775
-4.78
-4.775
-4.775
-4.765
-4.765
-4.765
-4.76
-4.76
-4.76
-4.76
-4.76
-4.76
-4.755
-4.75
-4.75
-4.76
-4.76
-4.765
-4.775
-4.77
-4.765
-4.765
-4.78
-4.785
-4.785
-4.79
-4.795
-4.785
-4.795
-4.805
-4.815
-4.815
-4.825
-4.83
-4.83
-4.84
-4.83
-4.845
-4.845
-4.835
-4.85
-4.85
-4.85
-4.85
-4.85
-4.86
-4.86
-4.85
-4.865
-4.865
-4.87
-4.87
-4.87
-4.865
-4.87
-4.87
-4.87
-4.87
-4.875
-4.875
-4.895
-4.895
-4.885
-4.875
-4.875
-4.875
-4.87
-4.86
-4.84
-4.815
-4.81
-4.785
-4.785
-4.775
-4.755
-4.745
-4.745
-4.775
-4.795
-4.775
-4.77
-4.78
-4.8
-4.795
-4.795
-4.815
-4.825
-4.825
-4.85
-4.87
-4.87
-4.88
-4.895
-4.905
-4.905
-4.91
-4.91
-4.93
-4.93
-4.93
-4.925
-4.915
-4.91
-4.92
-4.91
-4.905
-4.895
-4.89
-4.87
-4.8
-4.7
-4.55
-4.355
-4.295
-4.365
-4.43
-4.56
-4.655
-4.745
-4.955
-5.155
-5.32
-5.445
-5.375
-5.22
-5.06
-4.99
-4.955
-4.935
-4.92
-4.91
-4.905
-4.9
-4.89
-4.88
-4.88
-4.875
-4.875
-4.87
-4.87
-4.855
-4.855
-4.85
-4.85
-4.85
-4.845
-4.835
-4.835
-4.83
-4.81
-4.805
-4.795
-4.785
-4.78
-4.77
-4.76
-4.745
-4.73
-4.72
-4.705
-4.695
-4.68
-4.67
-4.65
-4.63
-4.605
-4.57
-4.555
-4.535
-4.505
-4.48
-4.455
-4.425
-4.41
-4.39
-4.38
-4.36
-4.345
-4.34
-4.325
-4.32
-4.32
-4.32
-4.325
-4.33
-4.34
-4.355
-4.36
-4.385
-4.41
-4.44
-4.47
-4.505
-4.54
-4.57
-4.6
-4.635
-4.655
-4.685
-4.715
-4.73
-4.74
-4.76
-4.775
-4.785
-4.795
-4.795
-4.795
-4.8
-4.815
-4.825
-4.815
-4.815
-4.81
-4.805
-4.8
-4.785
-4.78
-4.785
-4.78
-4.78
-4.78
-4.775
-4.775
-4.775
-4.775
-4.775
-4.775
-4.775
-4.775
-4.785
-4.785
-4.785
-4.79
-4.79
-4.785
-4.785
-4.795
-4.81
-4.815
-4.825
-4.825
-4.815
-4.825
-4.83
-4.835
-4.835
-4.84
-4.84
-4.845
-4.85
-4.85
-4.86
-4.855
-4.86
-4.86
-4.85
-4.85
-4.865
-4.865
-4.87
-4.875
-4.88
-4.895
-4.895
-4.89
-4.89
-4.87
-4.86
-4.86
-4.865
-4.86
-4.865
-4.865
-4.86
-4.86
-4.85
-4.85
-4.84
-4.835
-4.83
-4.815
-4.8
-4.785
-4.775
-4.775
-4.78
-4.8
-4.795
-4.775
-4.765
-4.785
-4.785
-4.81
-4.835
-4.845
-4.83
-4.825
-4.805
-4.8
-4.815
-4.845
-4.855
-4.865
-4.87
-4.87
-4.87
-4.875
-4.875
-4.89
-4.885
-4.875
-4.865
-4.86
-4.86
-4.855
-4.83
-4.835
-4.81
-4.745
-4.64
-4.485
-4.3
-4.09
-3.97
-4.025
-4.095
-4.18
-4.33
-4.54
-4.825
-5.1
-5.29
-5.35
-5.295
-5.195
-5.075
-4.98
-4.925
-4.895
-4.875
-4.865
-4.86
-4.855
-4.855
-4.85
-4.845
-4.84
-4.84
-4.83
-4.835
-4.825
-4.815
-4.815
-4.82
-4.825
-4.805
-4.79
-4.785
-4.795
-4.785
-4.775
-4.77
-4.765
-4.75
-4.735
-4.73
-4.725
-4.71
-4.695
-4.68
-4.675
-4.655
-4.63
-4.61
-4.585
-4.555
-4.54
-4.515
-4.49
-4.47
-4.45
-4.42
-4.395
-4.36
-4.345
-4.325
-4.31
-4.29
-4.29
-4.285
-4.275
-4.28
-4.285
-4.285
-4.285
-4.29
-4.3
-4.325
-4.335
-4.355
-4.385
-4.41
-4.44
-4.475
-4.505
-4.545
-4.57
-4.6
-4.635
-4.655
-4.675
-4.69
-4.71
-4.725
-4.74
-4.745
-4.75
-4.75
-4.75
-4.765
-4.765
-4.765
-4.77
-4.765
-4.77
-4.765
-4.76
-4.765
-4.75
-4.75
-4.745
-4.745
-4.75
-4.75
-4.75
-4.745
-4.74
-4.74
-4.74
-4.735
-4.735
-4.735
-4.735
-4.735
-4.745
-4.75
-4.755
-4.765
-4.765
-4.775
-4.785
-4.785
-4.79
-4.795
-4.805
-4.815
-4.81
-4.8
-4.8
-4.8
-4.81
-4.825
-4.815
-4.815
-4.815
-4.83
-4.83
-4.835
-4.845
-4.85
-4.85
-4.845
-4.84
-4.84
-4.84
-4.85
-4.845
-4.85
-4.85
-4.85
-4.855
-4.85
-4.85
-4.85
-4.845
-4.835
-4.83
-4.815
-4.81
-4.8
-4.79
-4.775
-4.76
-4.75
-4.75
-4.735
-4.735
-4.76
-4.775
-4.78
-4.765
-4.78
-4.795
-4.795
-4.79
-4.8
-4.8
-4.805
-4.805
-4.81
-4.815
-4.84
-4.85
-4.86
-4.86
-4.86
-4.865
-4.865
-4.865
-4.87
-4.87
-4.87
-4.86
-4.86
-4.865
-4.86
-4.85
-4.84
-4.835
-4.805
-4.73
-4.605
-4.455
-4.265
-4.2
-4.265
-4.34
-4.44
-4.55
-4.65
-4.835
-5.04
-5.19
-5.29
-5.295
-5.185
-5.055
-4.96
-4.9
-4.86
-4.84
-4.83
-4.83
-4.815
-4.815
-4.8
-4.8
-4.795
-4.785
-4.785
-4.79
-4.79
-4.785
-4.765
-4.765
-4.76
-4.76
-4.75
-4.745
-4.74
-4.73
-4.72
-4.725
-4.71
-4.7
-4.685
-4.68
-4.67
-4.65
-4.64
-4.635
-4.61
-4.59
-4.57
-4.555
-4.535
-4.505
-4.485
-4.46
-4.43
-4.405
-4.385
-4.35
-4.325
-4.29
-4.27
-4.245
-4.22
-4.2
-4.185
-4.165
-4.155
-4.145
-4.145
-4.15
-4.16
-4.165
-4.18
-4.21
-4.23
-4.255
-4.29
-4.32
-4.35
-4.395
-4.44
-4.485
-4.515
-4.55
-4.58
-4.615
-4.645
-4.665
-4.7
-4.72
-4.73
-4.735
-4.745
-4.765
-4.765
-4.775
-4.78
-4.78
-4.785
-4.785
-4.785
-4.785
-4.78
-4.79
-4.785
-4.79
-4.79
-4.795
-4.795
-4.79
-4.79
-4.785
-4.78
-4.78
-4.775
-4.775
-4.78
-4.775
-4.775
-4.775
-4.765
-4.78
-4.775
-4.775
-4.78
-4.775
-4.775
-4.78
-4.785
-4.79
-4.79
-4.79
-4.785
-4.8
-4.805
-4.8
-4.8
-4.805
-4.815
-4.815
-4.815
-4.825
-4.83
-4.845
-4.845
-4.845
-4.845
-4.845
-4.85
-4.85
-4.85
-4.85
-4.845
-4.845
-4.835
-4.83
-4.815
-4.805
-4.79
-4.78
-4.78
-4.775
-4.755
-4.745
-4.765
-4.79
-4.795
-4.775
-4.785
-4.795
-4.795
-4.79
-4.795
-4.805
-4.815
-4.81
-4.8
-4.79
-4.825
-4.85
-4.865
-4.88
-4.89
-4.875
-4.87
-4.865
-4.87
-4.87
-4.865
-4.865
-4.86
-4.85
-4.845
-4.845
-4.84
-4.83
-4.805
-4.75
-4.65
-4.515
-4.35
-4.15
-4.05
-4.115
-4.18
-4.27
-4.395
-4.58
-4.83
-5.085
-5.235
-5.285
-5.235
-5.14
-5.035
-4.96
-4.92
-4.88
-4.865
-4.85
-4.85
-4.845
-4.84
-4.835
-4.83
-4.825
-4.825
-4.815
-4.815
-4.81
-4.81
-4.8
-4.785
-4.785
-4.78
-4.775
-4.765
-4.765
-4.76
-4.76
-4.75
-4.75
-4.73
-4.72
-4.715
-4.7
-4.695
-4.68
-4.67
-4.66
-4.645
-4.62
-4.61
-4.59
-4.57
-4.54
-4.515
-4.49
-4.47
-4.44
-4.415
-4.395
-4.365
-4.345
-4.32
-4.3
-4.285
-4.275
-4.265
-4.255
-4.245
-4.255
-4.265
-4.265
-4.28
-4.3
-4.325
-4.36
-4.395
-4.415
-4.44
-4.485
-4.525
-4.56
-4.59
-4.635
-4.675
-4.71
-4.73
-4.745
-4.75
-4.77
-4.785
-4.8
-4.815
-4.815
-4.825
-4.835
-4.85
-4.855
-4.85
-4.84
-4.835
-4.845
-4.845
-4.85
-4.86
-4.86
-4.845
-4.835
-4.83
-4.845
-4.845
-4.83
-4.815
-4.805
-4.795
-4.79
-4.795
-4.79
-4.79
-4.79
-4.795
-4.8
-4.805
-4.81
-4.805
-4.795
-4.795
-4.8
-4.81
-4.81
-4.805
-4.81
-4.82
-4.815
-4.81
-4.83
-4.835
-4.845
-4.845
-4.85
-4.855
-4.865
-4.865
-4.86
-4.855
-4.85
-4.86
-4.865
-4.87
-4.875
-4.87
-4.86
-4.86
-4.86
-4.86
-4.86
-4.865
-4.875
-4.875
-4.875
-4.875
-4.87
-4.87
-4.86
-4.85
-4.83
-4.81
-4.79
-4.78
-4.785
-4.785
-4.78
-4.775
-4.785
-4.81
-4.825
-4.82
-4.825
-4.84
-4.84
-4.835
-4.83
-4.83
-4.84
-4.845
-4.84
-4.83
-4.845
-4.87
-4.885
-4.895
-4.9
-4.9
-4.905
-4.905
-4.905
-4.895
-4.9
-4.895
-4.895
-4.895
-4.89
-4.895
-4.905
-4.885
-4.825
-4.71
-4.57
-4.395
-4.265
-4.345
-4.45
-4.535
-4.635
-4.71
-4.84
-5.025
-5.175
-5.275
-5.265
-5.155
-5.035
-4.96
-4.915
-4.88
-4.875
-4.86
-4.85
-4.85
-4.845
-4.845
-4.84
-4.84
-4.83
-4.83
-4.83
-4.83
-4.815
-4.81
-4.8
-4.795
-4.795
-4.785
-4.785
-4.775
-4.76
-4.75
-4.745
-4.73
-4.72
-4.705
-4.695
-4.675
-4.665
-4.655
-4.635
-4.59
-4.57
-4.56
-4.545
-4.525
-4.495
-4.46
-4.44
-4.415
-4.385
-4.35
-4.325
-4.285
-4.255
-4.245
-4.22
-4.2
-4.19
-4.17
-4.155
-4.15
-4.14
-4.15
-4.15
-4.16
-4.18
-4.2
-4.215
-4.235
-4.265
-4.315
-4.375
-4.415
-4.46
-4.505
-4.545
-4.58
-4.615
-4.645
-4.67
-4.7
-4.715
-4.73
-4.75
-4.77
-4.78
-4.785
-4.785
-4.8
-4.8
-4.8
-4.805
-4.805
-4.815
-4.83
-4.83
-4.83
-4.83
-4.83
-4.83
-4.825
-4.815
-4.815
-4.825
-4.825
-4.815
-4.825
-4.815
-4.815
-4.815
-4.815
-4.815
-4.82
-4.815
-4.81
-4.81
-4.815
-4.81
-4.81
-4.81
-4.81
-4.81
-4.805
-4.81
-4.815
-4.825
-4.825
-4.825
-4.825
-4.83
-4.83
-4.835
-4.835
-4.835
-4.84
-4.845
-4.845
-4.845
-4.85
-4.85
-4.86
-4.865
-4.87
-4.865
-4.87
-4.87
-4.87
-4.87
-4.87
-4.875
-4.875
-4.875
-4.875
-4.875
-4.87
-4.87
-4.865
-4.86
-4.865
-4.865
-4.86
-4.85
-4.86
-4.85
-4.835
-4.81
-4.8
-4.79
-4.79
-4.785
-4.785
-4.775
-4.79
-4.815
-4.83
-4.83
-4.825
-4.835
-4.84
-4.84
-4.835
-4.83
-4.83
-4.84
-4.83
-4.83
-4.83
-4.86
-4.88
-4.89
-4.89
-4.89
-4.895
-4.895
-4.905
-4.9
-4.9
-4.89
-4.895
-4.89
-4.885
-4.88
-4.87
-4.865
-4.85
-4.805
-4.71
-4.57
-4.405
-4.265
-4.31
-4.395
-4.48
-4.57
-4.67
-4.83
-5.035
-5.185
-5.285
-5.28
-5.17
-5.035
-4.96
-4.91
-4.885
-4.87
-4.865
-4.85
-4.845
-4.84
-4.84
-4.84
-4.835
-4.835
-4.83
-4.825
-4.815
-4.815
-4.805
-4.795
-4.795
-4.79
-4.785
-4.775
-4.77
-4.765
-4.75
-4.74
-4.73
-4.72
-4.715
-4.7
-4.68
-4.675
-4.655
-4.64
-4.62
-4.6
-4.585
-4.56
-4.54
-4.515
-4.48
-4.455
-4.44
-4.41
-4.375
-4.34
-4.31
-4.28
-4.255
-4.23
-4.2
-4.185
-4.18
-4.18
-4.16
-4.15
-4.145
-4.16
-4.16
-4.16
-4.18
-4.2
-4.235
-4.265
-4.295
-4.34
-4.385
-4.42
-4.455
-4.5
-4.54
-4.58
-4.615
-4.65
-4.67
-4.7
-4.715
-4.735
-4.75
-4.765
-4.78
-4.785
-4.79
-4.795
-4.805
-4.805
-4.805
-4.815
-4.815
-4.815
-4.81
-4.815
-4.825
-4.83
-4.835
-4.83
-4.825
-4.83
-4.835
-4.83
-4.83
-4.835
-4.83
-4.825
-4.815
-4.815
-4.815
-4.815
-4.815
-4.805
-4.805
-4.805
-4.81
-4.815
-4.815
-4.81
-4.815
-4.815
-4.825
-4.825
-4.825
-4.825
-4.825
-4.83
-4.83
-4.84
-4.84
-4.845
-4.85
-4.86
-4.865
-4.865
-4.865
-4.87
-4.875
-4.875
-4.88
-4.88
-4.88
-4.875
-4.875
-4.88
-4.895
-4.89
-4.89
-4.88
-4.89
-4.895
-4.895
-4.895
-4.895
-4.895
-4.895
-4.905
-4.895
-4.9
-4.895
-4.9
-4.9
-4.905
-4.895
-4.9
-4.895
-4.905
-4.905
-4.895
-4.89
-4.89
-4.87
-4.85
-4.84
-4.835
-4.83
-4.83
-4.815
-4.8
-4.805
-4.83
-4.85
-4.845
-4.84
-4.85
-4.855
-4.85
-4.85
-4.85
-4.85
-4.855
-4.85
-4.85
-4.86
-4.89
-4.895
-4.91
-4.92
-4.92
-4.915
-4.915
-4.915
-4.92
-4.92
-4.92
-4.925
-4.915
-4.91
-4.9
-4.895
-4.88
-4.87
-4.845
-4.78
-4.67
-4.52
-4.34
-4.29
-4.365
-4.44
-4.54
-4.63
-4.705
-4.87
-5.065
-5.215
-5.31
-5.28
-5.15
-5.02
-4.945
-4.91
-4.895
-4.88
-4.875
-4.865
-4.865
-4.86
-4.85
-4.85
-4.855
-4.845
-4.84
-4.84
-4.84
-4.84
-4.835
-4.815
-4.81
-4.81
-4.805
-4.8
-4.785
-4.775
-4.765
-4.75
-4.74
-4.73
-4.715
-4.71
-4.695
-4.68
-4.67
-4.665
-4.645
-4.615
-4.59
-4.57
-4.55
-4.52
-4.49
-4.47
-4.45
-4.42
-4.385
-4.35
-4.325
-4.29
-4.26
-4.235
-4.225
-4.2
-4.185
-4.165
-4.155
-4.16
-4.155
-4.155
-4.155
-4.16
-4.17
-4.19
-4.22
-4.255
-4.29
-4.33
-4.37
-4.405
-4.455
-4.49
-4.525
-4.555
-4.6
-4.63
-4.655
-4.675
-4.695
-4.71
-4.73
-4.735
-4.745
-4.765
-4.765
-4.78
-4.79
-4.785
-4.785
-4.78
-4.785
-4.785
-4.79
-4.795
-4.8
-4.8
-4.8
-4.8
-4.795
-4.795
-4.795
-4.785
-4.79
-4.79
-4.78
-4.775
-4.785
-4.785
-4.775
-4.775
-4.765
-4.765
-4.77
-4.775
-4.775
-4.775
-4.765
-4.775
-4.78
-4.785
-4.78
-4.785
-4.795
-4.785
-4.795
-4.805
-4.81
-4.815
-4.825
-4.83
-4.835
-4.83
-4.835
-4.85
-4.85
-4.86
-4.86
-4.86
-4.86
-4.86
-4.86
-4.86
-4.87
-4.875
-4.87
-4.875
-4.88
-4.88
-4.89
-4.88
-4.88
-4.89
-4.89
-4.89
-4.885
-4.88
-4.875
-4.88
-4.88
-4.88
-4.88
-4.89
-4.88
-4.875
-4.875
-4.88
-4.88
-4.875
-4.865
-4.865
-4.85
-4.83
-4.825
-4.81
-4.81
-4.805
-4.8
-4.785
-4.785
-4.8
-4.825
-4.83
-4.825
-4.83
-4.83
-4.83
-4.815
-4.825
-4.835
-4.835
-4.825
-4.83
-4.84
-4.86
-4.865
-4.88
-4.9
-4.89
-4.89
-4.89
-4.88
-4.885
-4.89
-4.88
-4.875
-4.875
-4.87
-4.87
-4.865
-4.855
-4.845
-4.825
-4.775
-4.655
-4.515
-4.35
-4.225
-4.28
-4.355
-4.46
-4.6
-4.675
-4.825
-5.025
-5.18
-5.31
-5.305
-5.175
-5.025
-4.935
-4.89
-4.87
-4.86
-4.845
-4.84
-4.83
-4.835
-4.83
-4.81
-4.81
-4.815
-4.81
-4.815
-4.81
-4.81
-4.805
-4.795
-4.785
-4.79
-4.78
-4.775
-4.765
-4.765
-4.75
-4.745
-4.735
-4.735
-4.715
-4.705
-4.695
-4.675
-4.665
-4.64
-4.63
-4.605
-4.585
-4.57
-4.545
-4.52
-4.495
-4.47
-4.44
-4.405
-4.375
-4.345
-4.32
-4.285
-4.255
-4.23
-4.21
-4.19
-4.175
-4.16
-4.15
-4.14
-4.14
-4.135
-4.135
-4.145
-4.16
-4.18
-4.2
-4.23
-4.26
-4.29
-4.325
-4.36
-4.415
-4.46
-4.495
-4.535
-4.565
-4.59
-4.63
-4.655
-4.675
-4.7
-4.72
-4.73
-4.74
-4.75
-4.765
-4.775
-4.79
-4.79
-4.785
-4.795
-4.79
-4.81
-4.805
-4.8
-4.805
-4.8
-4.805
-4.8
-4.795
-4.795
-4.795
-4.8
-4.795
-4.795
-4.795
-4.795
-4.795
-4.795
-4.785
-4.79
-4.785
-4.785
-4.785
-4.785
-4.795
-4.79
-4.785
-4.785
-4.79
-4.8
-4.8
-4.81
-4.81
-4.81
-4.825
-4.825
-4.825
-4.835
-4.84
-4.84
-4.845
-4.85
-4.845
-4.855
-4.87
-4.86
-4.87
-4.875
-4.875
-4.88
-4.88
-4.88
-4.89
-4.89
-4.88
-4.88
-4.885
-4.895
-4.895
-4.895
-4.9
-4.895
-4.895
-4.89
-4.895
-4.885
-4.89
-4.895
-4.9
-4.9
-4.89
-4.895
-4.9
-4.895
-4.895
-4.9
-4.9
-4.9
-4.895
-4.9
-4.895
-4.9
-4.895
-4.89
-4.88
-4.875
-4.87
-4.86
-4.845
-4.83
-4.82
-4.81
-4.81
-4.8
-4.775
-4.775
-4.795
-4.815
-4.825
-4.815
-4.815
-4.83
-4.83
-4.825
-4.825
-4.83
-4.845
-4.835
-4.845
-4.85
-4.87
-4.89
-4.9
-4.91
-4.9
-4.9
-4.9
-4.895
-4.905
-4.905
-4.905
-4.905
-4.895
-4.88
-4.875
-4.875
-4.87
-4.86
-4.825
-4.74
-4.615
-4.46
-4.31
-4.325
-4.43
-4.535
-4.655
-4.695
-4.765
-4.945
-5.155
-5.32
-5.345
-5.21
-5.055
-4.96
-4.915
-4.895
-4.875
-4.86
-4.865
-4.865
-4.85
-4.84
-4.84
-4.835
-4.835
-4.84
-4.83
-4.83
-4.825
-4.81
-4.805
-4.805
-4.8
-4.795
-4.785
-4.785
-4.775
-4.765
-4.75
-4.75
-4.74
-4.725
-4.715
-4.705
-4.695
-4.68
-4.665
-4.65
-4.63
-4.605
-4.585
-4.57
-4.545
-4.515
-4.485
-4.46
-4.43
-4.405
-4.375
-4.345
-4.31
-4.285
-4.26
-4.245
-4.225
-4.2
-4.19
-4.18
-4.17
-4.175
-4.17
-4.165
-4.175
-4.19
-4.21
-4.23
-4.245
-4.27
-4.31
-4.355
-4.395
-4.44
-4.475
-4.52
-4.55
-4.585
-4.61
-4.645
-4.67
-4.695
-4.71
-4.725
-4.74
-4.75
-4.765
-4.775
-4.78
-4.79
-4.8
-4.795
-4.795
-4.805
-4.805
-4.805
-4.805
-4.805
-4.805
-4.805
-4.8
-4.8
-4.8
-4.8
-4.805
-4.805
-4.8
-4.795
-4.79
-4.795
-4.795
-4.795
-4.805
-4.795
-4.795
-4.8
-4.805
-4.805
-4.815
-4.815
-4.815
-4.825
-4.83
-4.83
-4.83
-4.835
-4.83
-4.845
-4.85
-4.855
-4.86
-4.86
-4.865
-4.865
-4.87
-4.88
-4.88
-4.88
-4.89
-4.9
-4.905
-4.905
-4.895
-4.89
-4.89
-4.895
-4.895
-4.905
-4.9
-4.905
-4.905
-4.91
-4.91
-4.905
-4.905
-4.905
-4.905
-4.91
-4.91
-4.915
-4.915
-4.92
-4.91
-4.91
-4.91
-4.91
-4.905
-4.91
-4.905
-4.905
-4.905
-4.895
-4.9
-4.895
-4.895
-4.895
-4.895
-4.88
-4.88
-4.875
-4.865
-4.845
-4.83
-4.815
-4.815
-4.805
-4.795
-4.79
-4.805
-4.825
-4.83
-4.825
-4.83
-4.84
-4.84
-4.83
-4.84
-4.845
-4.85
-4.86
-4.865
-4.865
-4.89
-4.905
-4.92
-4.92
-4.915
-4.915
-4.92
-4.92
-4.925
-4.93
-4.925
-4.925
-4.925
-4.92
-4.915
-4.91
-4.905
-4.9
-4.86
-4.795
-4.67
-4.52
-4.345
-4.355
-4.46
-4.56
-4.66
-4.71
-4.765
-4.94
-5.135
-5.305
-5.385
-5.29
-5.14
-5.025
-4.955
-4.92
-4.9
-4.89
-4.88
-4.875
-4.87
-4.865
-4.855
-4.85
-4.85
-4.845
-4.845
-4.835
-4.83
-4.835
-4.825
-4.82
-4.805
-4.805
-4.805
-4.795
-4.785
-4.78
-4.775
-4.765
-4.75
-4.735
-4.72
-4.715
-4.71
-4.7
-4.68
-4.665
-4.65
-4.63
-4.605
-4.59
-4.57
-4.55
-4.52
-4.485
-4.465
-4.43
-4.41
-4.38
-4.35
-4.325
-4.29
-4.27
-4.245
-4.22
-4.2
-4.195
-4.185
-4.18
-4.18
-4.18
-4.185
-4.195
-4.205
-4.22
-4.245
-4.265
-4.295
-4.33
-4.365
-4.395
-4.44
-4.48
-4.515
-4.55
-4.59
-4.61
-4.635
-4.665
-4.68
-4.7
-4.715
-4.72
-4.735
-4.74
-4.75
-4.765
-4.765
-4.765
-4.77
-4.775
-4.775
-4.775
-4.78
-4.78
-4.775
-4.765
-4.77
-4.765
-4.765
-4.765
-4.765
-4.75
-4.76
-4.76
-4.765
-4.76
-4.76
-4.765
-4.765
-4.77
-4.765
-4.77
-4.775
-4.775
-4.78
-4.785
-4.785
-4.785
-4.79
-4.795
-4.81
-4.815
-4.81
-4.815
-4.825
-4.83
-4.83
-4.835
-4.845
-4.85
-4.845
-4.84
-4.845
-4.845
-4.85
-4.855
-4.855
-4.855
-4.86
-4.87
-4.87
-4.87
-4.87
-4.875
-4.88
-4.88
-4.88
-4.875
-4.88
-4.875
-4.875
-4.875
-4.88
-4.88
-4.875
-4.875
-4.88
-4.88
-4.88
-4.88
-4.875
-4.88
-4.875
-4.87
-4.875
-4.875
-4.87
-4.87
-4.855
-4.845
-4.83
-4.825
-4.81
-4.795
-4.79
-4.775
-4.765
-4.78
-4.8
-4.805
-4.795
-4.8
-4.81
-4.81
-4.805
-4.815
-4.825
-4.815
-4.825
-4.83
-4.83
-4.85
-4.87
-4.875
-4.875
-4.875
-4.885
-4.895
-4.895
-4.9
-4.89
-4.89
-4.89
-4.89
-4.88
-4.87
-4.87
-4.865
-4.85
-4.82
-4.745
-4.635
-4.475
-4.28
-4.245
-4.355
-4.44
-4.525
-4.57
-4.635
-4.82
-5.045
-5.25
-5.355
-5.265
-5.115
-4.985
-4.915
-4.88
-4.865
-4.85
-4.845
-4.835
-4.825
-4.825
-4.83
-4.815
-4.805
-4.81
-4.795
-4.8
-4.8
-4.8
-4.795
-4.785
-4.775
-4.765
-4.765
-4.765
-4.76
-4.74
-4.735
-4.74
-4.725
-4.71
-4.71
-4.695
-4.685
-4.675
-4.655
-4.635
-4.61
-4.6
-4.585
-4.57
-4.55
-4.525
-4.505
-4.47
-4.45
-4.425
-4.405
-4.375
-4.345
-4.32
-4.29
-4.275
-4.255
-4.23
-4.225
-4.22
-4.215
-4.21
-4.2
-4.2
-4.2
-4.21
-4.225
-4.245
-4.27
-4.29
-4.315
-4.345
-4.375
-4.415
-4.445
-4.485
-4.52
-4.545
-4.575
-4.59
-4.635
-4.65
-4.675
-4.69
-4.71
-4.72
-4.73
-4.735
-4.745
-4.76
-4.76
-4.765
-4.765
-4.77
-4.77
-4.775
-4.78
-4.765
-4.765
-4.76
-4.76
-4.76
-4.77
-4.76
-4.76
-4.76
-4.75
-4.75
-4.745
-4.745
-4.745
-4.755
-4.765
-4.765
-4.765
-4.765
-4.775
-4.78
-4.775
-4.785
-4.785
-4.785
-4.79
-4.805
-4.805
-4.8
-4.8
-4.815
-4.83
-4.83
-4.83
-4.835
-4.835
-4.83
-4.845
-4.845
-4.85
-4.86
-4.85
-4.85
-4.86
-4.86
-4.865
-4.86
-4.86
-4.865
-4.865
-4.865
-4.865
-4.87
-4.865
-4.87
-4.865
-4.86
-4.865
-4.87
-4.865
-4.86
-4.865
-4.86
-4.865
-4.865
-4.865
-4.87
-4.86
-4.85
-4.835
-4.815
-4.8
-4.795
-4.79
-4.775
-4.765
-4.76
-4.775
-4.795
-4.795
-4.785
-4.785
-4.795
-4.805
-4.785
-4.795
-4.805
-4.81
-4.815
-4.83
-4.84
-4.85
-4.865
-4.875
-4.885
-4.88
-4.88
-4.89
-4.895
-4.895
-4.89
-4.89
-4.89
-4.89
-4.87
-4.87
-4.865
-4.85
-4.85
-4.83
-4.78
-4.675
-4.525
-4.33
-4.28
-4.395
-4.505
-4.59
-4.645
-4.655
-4.785
-4.985
-5.18
-5.325
-5.29
-5.15
-5
-4.925
-4.89
-4.86
-4.855
-4.845
-4.84
-4.835
-4.84
-4.835
-4.83
-4.825
-4.825
-4.825
-4.825
-4.81
-4.805
-4.795
-4.795
-4.795
-4.785
-4.78
-4.765
-4.765
-4.76
-4.745
-4.74
-4.725
-4.72
-4.715
-4.7
-4.68
-4.665
-4.65
-4.64
-4.62
-4.6
-4.585
-4.57
-4.545
-4.525
-4.5
-4.47
-4.45
-4.42
-4.39
-4.365
-4.35
-4.32
-4.295
-4.28
-4.265
-4.255
-4.235
-4.225
-4.215
-4.22
-4.22
-4.22
-4.225
-4.23
-4.245
-4.265
-4.285
-4.3
-4.33
-4.355
-4.395
-4.435
-4.465
-4.495
-4.525
-4.56
-4.58
-4.61
-4.63
-4.655
-4.675
-4.69
-4.705
-4.71
-4.71
-4.72
-4.72
-4.73
-4.74
-4.735
-4.73
-4.73
-4.74
-4.735
-4.735
-4.735
-4.735
-4.73
-4.73
-4.72
-4.73
-4.72
-4.715
-4.72
-4.72
-4.715
-4.72
-4.73
-4.725
-4.72
-4.73
-4.73
-4.74
-4.745
-4.75
-4.745
-4.75
-4.75
-4.76
-4.76
-4.76
-4.765
-4.765
-4.775
-4.78
-4.78
-4.785
-4.795
-4.795
-4.795
-4.8
-4.8
-4.805
-4.805
-4.81
-4.81
-4.81
-4.81
-4.815
-4.825
-4.825
-4.825
-4.83
-4.83
-4.825
-4.815
-4.825
-4.83
-4.835
-4.83
-4.83
-4.83
-4.825
-4.825
-4.83
-4.83
-4.83
-4.83
-4.825
-4.825
-4.83
-4.835
-4.835
-4.825
-4.81
-4.8
-4.785
-4.77
-4.75
-4.74
-4.74
-4.735
-4.715
-4.71
-4.725
-4.745
-4.75
-4.745
-4.76
-4.77
-4.765
-4.76
-4.77
-4.775
-4.775
-4.785
-4.81
-4.815
-4.815
-4.84
-4.85
-4.85
-4.85
-4.85
-4.865
-4.855
-4.85
-4.85
-4.855
-4.85
-4.85
-4.85
-4.84
-4.83
-4.835
-4.815
-4.79
-4.705
-4.55
-4.36
-4.28
-4.385
-4.485
-4.57
-4.615
-4.63
-4.76
-4.955
-5.155
-5.3
-5.275
-5.12
-4.975
-4.9
-4.865
-4.84
-4.825
-4.815
-4.815
-4.81
-4.81
-4.805
-4.8
-4.785
-4.79
-4.795
-4.795
-4.785
-4.79
-4.775
-4.77
-4.77
-4.765
-4.75
-4.75
-4.75
-4.75
-4.735
-4.72
-4.715
-4.71
-4.705
-4.695
-4.675
-4.655
-4.65
-4.635
-4.61
-4.605
-4.6
-4.58
-4.555
-4.535
-4.505
-4.485
-4.465
-4.455
-4.42
-4.4
-4.375
-4.35
-4.33
-4.31
-4.285
-4.265
-4.26
-4.245
-4.245
-4.245
-4.235
-4.235
-4.245
-4.245
-4.245
-4.265
-4.285
-4.305
-4.325
-4.36
-4.395
-4.42
-4.455
-4.485
-4.505
-4.535
-4.57
-4.595
-4.63
-4.645
-4.655
-4.67
-4.685
-4.705
-4.71
-4.715
-4.715
-4.72
-4.725
-4.725
-4.735
-4.73
-4.73
-4.73
-4.72
-4.72
-4.725
-4.725
-4.72
-4.715
-4.715
-4.72
-4.73
-4.72
-4.72
-4.72
-4.72
-4.73
-4.725
-4.72
-4.72
-4.74
-4.74
-4.735
-4.745
-4.76
-4.765
-4.765
-4.765
-4.765
-4.775
-4.775
-4.79
-4.795
-4.795
-4.8
-4.805
-4.81
-4.805
-4.805
-4.805
-4.81
-4.81
-4.815
-4.815
-4.815
-4.825
-4.825
-4.835
-4.83
-4.835
-4.83
-4.83
-4.835
-4.83
-4.835
-4.84
-4.84
-4.84
-4.845
-4.845
-4.84
-4.83
-4.83
-4.83
-4.835
-4.83
-4.835
-4.83
-4.835
-4.84
-4.84
-4.83
-4.825
-4.815
-4.805
-4.795
-4.78
-4.765
-4.745
-4.745
-4.735
-4.72
-4.705
-4.715
-4.73
-4.755
-4.755
-4.745
-4.75
-4.755
-4.765
-4.765
-4.79
-4.785
-4.785
-4.795
-4.825
-4.825
-4.845
-4.86
-4.86
-4.865
-4.87
-4.875
-4.875
-4.875
-4.875
-4.88
-4.875
-4.87
-4.87
-4.87
-4.865
-4.86
-4.85
-4.84
-4.81
-4.745
-4.63
-4.465
-4.31
-4.365
-4.48
-4.58
-4.655
-4.655
-4.74
-4.935
-5.115
-5.295
-5.35
-5.215
-5.035
-4.945
-4.895
-4.87
-4.86
-4.85
-4.85
-4.845
-4.835
-4.83
-4.825
-4.83
-4.825
-4.825
-4.825
-4.805
-4.81
-4.805
-4.8
-4.8
-4.795
-4.785
-4.785
-4.775
-4.765
-4.765
-4.76
-4.75
-4.745
-4.74
-4.72
-4.71
-4.7
-4.695
-4.675
-4.665
-4.65
-4.63
-4.615
-4.605
-4.58
-4.565
-4.54
-4.525
-4.495
-4.485
-4.46
-4.435
-4.415
-4.39
-4.375
-4.36
-4.35
-4.325
-4.32
-4.31
-4.295
-4.295
-4.31
-4.315
-4.31
-4.31
-4.33
-4.33
-4.35
-4.375
-4.395
-4.415
-4.44
-4.48
-4.51
-4.535
-4.56
-4.59
-4.61
-4.635
-4.655
-4.675
-4.685
-4.7
-4.705
-4.72
-4.725
-4.72
-4.73
-4.74
-4.74
-4.745
-4.73
-4.735
-4.735
-4.73
-4.73
-4.735
-4.72
-4.725
-4.725
-4.725
-4.72
-4.72
-4.725
-4.735
-4.73
-4.72
-4.72
-4.73
-4.735
-4.735
-4.74
-4.745
-4.75
-4.75
-4.76
-4.76
-4.765
-4.765
-4.765
-4.775
-4.775
-4.78
-4.79
-4.8
-4.795
-4.79
-4.8
-4.8
-4.805
-4.805
-4.805
-4.815
-4.81
-4.815
-4.815
-4.825
-4.835
-4.825
-4.835
-4.825
-4.825
-4.83
-4.825
-4.835
-4.835
-4.83
-4.83
-4.84
-4.835
-4.83
-4.835
-4.835
-4.84
-4.84
-4.835
-4.835
-4.835
-4.83
-4.83
-4.83
-4.815
-4.795
-4.775
-4.765
-4.76
-4.745
-4.73
-4.73
-4.72
-4.71
-4.71
-4.73
-4.75
-4.75
-4.745
-4.75
-4.76
-4.755
-4.765
-4.78
-4.78
-4.785
-4.795
-4.81
-4.83
-4.84
-4.85
-4.865
-4.87
-4.87
-4.87
-4.875
-4.875
-4.875
-4.88
-4.89
-4.89
-4.885
-4.88
-4.88
-4.875
-4.87
-4.865
-4.84
-4.795
-4.7
-4.565
-4.375
-4.33
-4.405
-4.495
-4.615
-4.705
-4.75
-4.89
-5.06
-5.235
-5.365
-5.31
-5.155
-5.01
-4.945
-4.91
-4.895
-4.885
-4.88
-4.87
-4.87
-4.87
-4.865
-4.86
-4.85
-4.85
-4.85
-4.85
-4.85
-4.845
-4.84
-4.835
-4.83
-4.825
-4.815
-4.81
-4.805
-4.795
-4.785
-4.78
-4.775
-4.76
-4.745
-4.735
-4.73
-4.715
-4.7
-4.695
-4.675
-4.655
-4.645
-4.62
-4.605
-4.58
-4.555
-4.54
-4.515
-4.485
-4.465
-4.44
-4.42
-4.395
-4.38
-4.36
-4.345
-4.33
-4.325
-4.32
-4.31
-4.315
-4.31
-4.31
-4.32
-4.33
-4.345
-4.35
-4.365
-4.385
-4.41
-4.44
-4.46
-4.495
-4.525
-4.56
-4.59
-4.605
-4.635
-4.665
-4.69
-4.71
-4.72
-4.735
-4.745
-4.76
-4.765
-4.775
-4.775
-4.775
-4.775
-4.78
-4.775
-4.775
-4.78
-4.775
-4.775
-4.775
-4.765
-4.765
-4.765
-4.765
-4.765
-4.765
-4.765
-4.765
-4.765
-4.765
-4.77
-4.775
-4.78
-4.78
-4.78
-4.78
-4.785
-4.8
-4.8
-4.805
-4.805
-4.805
-4.82
-4.825
-4.825
-4.83
-4.83
-4.83
-4.835
-4.84
-4.845
-4.845
-4.85
-4.85
-4.85
-4.85
-4.855
-4.855
-4.865
-4.865
-4.865
-4.87
-4.87
-4.87
-4.87
-4.865
-4.87
-4.87
-4.87
-4.865
-4.87
-4.87
-4.87
-4.865
-4.86
-4.865
-4.865
-4.86
-4.87
-4.87
-4.87
-4.87
-4.87
-4.87
-4.865
-4.865
-4.855
-4.845
-4.83
-4.81
-4.79
-4.775
-4.765
-4.765
-4.765
-4.76
-4.78
-4.8
-4.795
-4.785
-4.78
-4.795
-4.795
-4.79
-4.795
-4.805
-4.805
-4.81
-4.815
-4.825
-4.85
-4.865
-4.875
-4.88
-4.88
-4.88
-4.895
-4.895
-4.895
-4.895
-4.89
-4.88
-4.88
-4.875
-4.875
-4.865
-4.86
-4.845
-4.815
-4.74
-4.62
-4.455
-4.265
-4.13
-4.165
-4.245
-4.33
-4.475
-4.635
-4.865
-5.1
-5.245
-5.325
-5.305
-5.205
-5.09
-4.99
-4.925
-4.895
-4.87
-4.86
-4.845
-4.84
-4.84
-4.84
-4.83
-4.815
-4.815
-4.805
-4.8
-4.795
-4.79
-4.795
-4.785
-4.78
-4.775
-4.765
-4.765
-4.765
-4.75
-4.74
-4.73
-4.72
-4.715
-4.71
-4.7
-4.68
-4.675
-4.655
-4.645
-4.62
-4.61
-4.59
-4.57
-4.555
-4.535
-4.515
-4.49
-4.465
-4.44
-4.415
-4.395
-4.365
-4.345
-4.33
-4.3
-4.285
-4.265
-4.255
-4.25
-4.245
-4.235
-4.245
-4.255
-4.26
-4.27
-4.275
-4.285
-4.3
-4.33
-4.355
-4.385
-4.415
-4.455
-4.485
-4.52
-4.55
-4.58
-4.61
-4.635
-4.655
-4.675
-4.69
-4.705
-4.72
-4.73
-4.75
-4.76
-4.75
-4.76
-4.76
-4.76
-4.76
-4.76
-4.76
-4.76
-4.75
-4.75
-4.75
-4.75
-4.75
-4.745
-4.74
-4.74
-4.74
-4.74
-4.74
-4.74
-4.745
-4.745
-4.75
-4.75
-4.76
-4.765
-4.77
-4.765
-4.765
-4.775
-4.79
-4.79
-4.785
-4.79
-4.79
-4.795
-4.805
-4.8
-4.805
-4.81
-4.815
-4.83
-4.835
-4.83
-4.83
-4.83
-4.835
-4.835
-4.84
-4.84
-4.84
-4.845
-4.845
-4.85
-4.855
-4.85
-4.855
-4.85
-4.855
-4.85
-4.85
-4.855
-4.86
-4.86
-4.865
-4.86
-4.855
-4.85
-4.84
-4.83
-4.825
-4.8
-4.785
-4.79
-4.78
-4.77
-4.765
-4.78
-4.805
-4.815
-4.8
-4.8
-4.805
-4.805
-4.795
-4.805
-4.815
-4.815
-4.825
-4.81
-4.82
-4.85
-4.87
-4.875
-4.89
-4.89
-4.89
-4.895
-4.9
-4.895
-4.895
-4.9
-4.9
-4.895
-4.89
-4.875
-4.875
-4.87
-4.85
-4.81
-4.715
-4.59
-4.425
-4.225
-4.11
-4.155
-4.23
-4.325
-4.46
-4.635
-4.875
-5.1
-5.235
-5.295
-5.24
-5.15
-5.05
-4.97
-4.93
-4.91
-4.895
-4.88
-4.865
-4.86
-4.85
-4.855
-4.85
-4.845
-4.845
-4.84
-4.83
-4.825
-4.825
-4.81
-4.81
-4.815
-4.81
-4.8
-4.785
-4.775
-4.775
-4.765
-4.75
-4.745
-4.735
-4.72
-4.715
-4.705
-4.695
-4.68
-4.665
-4.635
-4.62
-4.605
-4.58
-4.555
-4.535
-4.505
-4.485
-4.46
-4.44
-4.41
-4.38
-4.345
-4.33
-4.31
-4.295
-4.28
-4.265
-4.255
-4.255
-4.255
-4.255
-4.255
-4.255
-4.265
-4.285
-4.295
-4.315
-4.345
-4.375
-4.395
-4.435
-4.475
-4.505
-4.54
-4.57
-4.6
-4.635
-4.655
-4.685
-4.71
-4.735
-4.755
-4.77
-4.78
-4.785
-4.795
-4.8
-4.805
-4.815
-4.815
-4.815
-4.815
-4.825
-4.81
-4.81
-4.815
-4.81
-4.805
-4.8
-4.795
-4.795
-4.795
-4.785
-4.785
-4.79
-4.79
-4.79
-4.79
-4.79
-4.785
-4.79
-4.795
-4.795
-4.805
-4.805
-4.8
-4.81
-4.815
-4.825
-4.83
-4.835
-4.835
-4.85
-4.85
-4.855
-4.86
-4.86
-4.87
-4.88
-4.88
-4.88
-4.88
-4.89
-4.89
-4.88
-4.895
-4.91
-4.905
-4.905
-4.9
-4.905
-4.905
-4.905
-4.905
-4.905
-4.915
-4.915
-4.91
-4.915
-4.91
-4.905
-4.905
-4.905
-4.91
-4.91
-4.91
-4.905
-4.905
-4.905
-4.9
-4.895
-4.89
-4.885
-4.88
-4.87
-4.855
-4.84
-4.83
-4.825
-4.825
-4.805
-4.81
-4.825
-4.845
-4.85
-4.845
-4.835
-4.85
-4.85
-4.845
-4.845
-4.85
-4.865
-4.86
-4.86
-4.86
-4.88
-4.91
-4.92
-4.92
-4.92
-4.925
-4.925
-4.92
-4.915
-4.925
-4.925
-4.925
-4.915
-4.91
-4.91
-4.895
-4.895
-4.875
-4.84
-4.77
-4.635
-4.48
-4.31
-4.35
-4.46
-4.57
-4.68
-4.76
-4.85
-5.035
-5.2
-5.31
-5.345
-5.235
-5.085
-4.99
-4.93
-4.9
-4.88
-4.87
-4.86
-4.855
-4.85
-4.85
-4.845
-4.84
-4.835
-4.84
-4.84
-4.83
-4.81
-4.805
-4.81
-4.795
-4.79
-4.78
-4.78
-4.765
-4.75
-4.745
-4.74
-4.73
-4.715
-4.705
-4.685
-4.675
-4.655
-4.655
-4.635
-4.61
-4.59
-4.58
-4.545
-4.52
-4.495
-4.46
-4.44
-4.415
-4.375
-4.34
-4.3
-4.275
-4.245
-4.22
-4.19
-4.17
-4.16
-4.15
-4.13
-4.125
-4.115
-4.115
-4.125
-4.14
-4.145
-4.165
-4.195
-4.215
-4.245
-4.29
-4.33
-4.365
-4.395
-4.44
-4.48
-4.535
-4.57
-4.61
-4.635
-4.665
-4.695
-4.715
-4.725
-4.74
-4.77
-4.785
-4.8
-4.8
-4.8
-4.805
-4.805
-4.815
-4.815
-4.825
-4.825
-4.81
-4.805
-4.81
-4.825
-4.81
-4.81
-4.81
-4.805
-4.8
-4.8
-4.785
-4.785
-4.785
-4.8
-4.805
-4.8
-4.79
-4.78
-4.775
-4.78
-4.785
-4.795
-4.795
-4.81
-4.835
-4.83
-4.82
-4.81
-4.81
-4.815
-4.825
-4.835
-4.85
-4.87
-4.875
-4.865
-4.85
-4.86
-4.87
-4.875
-4.865
-4.87
-4.87
-4.87
-4.88
-4.895
-4.89
-4.88
-4.875
-4.885
-4.89
-4.895
-4.89
-4.89
-4.905
-4.905
-4.9
-4.9
-4.9
-4.895
-4.895
-4.895
-4.9
-4.895
-4.9
-4.9
-4.895
-4.895
-4.895
-4.89
-4.895
-4.895
-4.895
-4.88
-4.865
-4.845
-4.835
-4.83
-4.825
-4.83
-4.81
-4.8
-4.81
-4.83
-4.85
-4.84
-4.83
-4.845
-4.845
-4.84
-4.845
-4.85
-4.85
-4.855
-4.865
-4.87
-4.88
-4.91
-4.915
-4.915
-4.915
-4.915
-4.92
-4.925
-4.93
-4.925
-4.91
-4.905
-4.9
-4.905
-4.905
-4.895
-4.905
-4.88
-4.835
-4.785
-4.675
-4.525
-4.37
-4.355
-4.47
-4.575
-4.725
-4.835
-4.87
-5
-5.135
-5.25
-5.34
-5.295
-5.135
-5
-4.94
-4.9
-4.875
-4.87
-4.855
-4.845
-4.84
-4.84
-4.83
-4.83
-4.83
-4.815
-4.81
-4.805
-4.795
-4.8
-4.79
-4.795
-4.79
-4.78
-4.765
-4.76
-4.745
-4.735
-4.735
-4.72
-4.715
-4.695
-4.685
-4.68
-4.665
-4.645
-4.63
-4.615
-4.595
-4.57
-4.55
-4.52
-4.505
-4.475
-4.455
-4.42
-4.385
-4.355
-4.325
-4.295
-4.28
-4.26
-4.225
-4.2
-4.19
-4.17
-4.16
-4.145
-4.135
-4.15
-4.15
-4.155
-4.17
-4.18
-4.195
-4.22
-4.25
-4.265
-4.31
-4.355
-4.395
-4.435
-4.48
-4.505
-4.545
-4.57
-4.605
-4.635
-4.655
-4.665
-4.685
-4.71
-4.725
-4.73
-4.74
-4.76
-4.765
-4.765
-4.765
-4.77
-4.775
-4.77
-4.77
-4.77
-4.775
-4.78
-4.765
-4.77
-4.76
-4.74
-4.75
-4.745
-4.745
-4.75
-4.76
-4.745
-4.75
-4.74
-4.74
-4.76
-4.745
-4.74
-4.745
-4.76
-4.76
-4.765
-4.76
-4.765
-4.77
-4.77
-4.765
-4.775
-4.78
-4.785
-4.795
-4.785
-4.8
-4.81
-4.805
-4.805
-4.815
-4.83
-4.83
-4.825
-4.82
-4.83
-4.845
-4.85
-4.85
-4.85
-4.855
-4.85
-4.855
-4.85
-4.85
-4.86
-4.865
-4.865
-4.86
-4.865
-4.86
-4.87
-4.865
-4.87
-4.87
-4.87
-4.87
-4.87
-4.875
-4.89
-4.875
-4.88
-4.875
-4.87
-4.865
-4.865
-4.85
-4.835
-4.81
-4.805
-4.785
-4.785
-4.775
-4.765
-4.765
-4.785
-4.795
-4.785
-4.785
-4.8
-4.81
-4.795
-4.8
-4.815
-4.83
-4.85
-4.87
-4.865
-4.87
-4.89
-4.895
-4.895
-4.895
-4.91
-4.91
-4.91
-4.905
-4.905
-4.905
-4.895
-4.9
-4.905
-4.905
-4.895
-4.88
-4.865
-4.84
-4.775
-4.665
-4.505
-4.33
-4.365
-4.505
-4.61
-4.7
-4.74
-4.74
-4.895
-5.09
-5.265
-5.385
-5.325
-5.15
-4.995
-4.92
-4.88
-4.86
-4.85
-4.845
-4.84
-4.835
-4.83
-4.815
-4.815
-4.81
-4.815
-4.805
-4.8
-4.795
-4.785
-4.79
-4.78
-4.78
-4.77
-4.76
-4.76
-4.75
-4.74
-4.72
-4.71
-4.71
-4.7
-4.685
-4.675
-4.68
-4.665
-4.635
-4.61
-4.59
-4.585
-4.57
-4.55
-4.52
-4.495
-4.475
-4.45
-4.42
-4.385
-4.365
-4.34
-4.31
-4.285
-4.265
-4.255
-4.235
-4.22
-4.205
-4.2
-4.19
-4.195
-4.195
-4.195
-4.2
-4.22
-4.23
-4.245
-4.27
-4.295
-4.33
-4.365
-4.4
-4.425
-4.46
-4.495
-4.525
-4.56
-4.59
-4.615
-4.635
-4.655
-4.68
-4.7
-4.705
-4.715
-4.715
-4.715
-4.72
-4.73
-4.735
-4.75
-4.74
-4.73
-4.73
-4.74
-4.73
-4.72
-4.72
-4.725
-4.72
-4.72
-4.725
-4.72
-4.715
-4.715
-4.72
-4.72
-4.715
-4.72
-4.725
-4.73
-4.735
-4.74
-4.745
-4.745
-4.75
-4.765
-4.765
-4.775
-4.78
-4.785
-4.785
-4.795
-4.795
-4.8
-4.8
-4.81
-4.815
-4.815
-4.83
-4.83
-4.835
-4.83
-4.84
-4.845
-4.85
-4.845
-4.845
-4.85
-4.85
-4.855
-4.86
-4.865
-4.865
-4.86
-4.85
-4.86
-4.86
-4.86
-4.865
-4.865
-4.865
-4.87
-4.875
-4.88
-4.875
-4.865
-4.86
-4.855
-4.835
-4.815
-4.8
-4.795
-4.785
-4.775
-4.765
-4.765
-4.775
-4.805
-4.83
-4.815
-4.805
-4.81
-4.825
-4.815
-4.81
-4.81
-4.83
-4.835
-4.855
-4.87
-4.875
-4.905
-4.91
-4.92
-4.92
-4.92
-4.925
-4.93
-4.92
-4.915
-4.915
-4.915
-4.92
-4.91
-4.905
-4.905
-4.895
-4.88
-4.85
-4.785
-4.675
-4.515
-4.325
-4.245
-4.325
-4.41
-4.515
-4.62
-4.735
-4.955
-5.155
-5.31
-5.38
-5.3
-5.155
-5.025
-4.945
-4.91
-4.895
-4.88
-4.865
-4.86
-4.85
-4.845
-4.85
-4.845
-4.84
-4.83
-4.825
-4.82
-4.815
-4.805
-4.8
-4.805
-4.795
-4.785
-4.775
-4.775
-4.765
-4.745
-4.74
-4.73
-4.725
-4.715
-4.7
-4.68
-4.655
-4.655
-4.635
-4.615
-4.6
-4.58
-4.56
-4.545
-4.525
-4.49
-4.46
-4.44
-4.415
-4.39
-4.355
-4.33
-4.31
-4.295
-4.265
-4.245
-4.23
-4.23
-4.22
-4.215
-4.2
-4.21
-4.215
-4.22
-4.22
-4.23
-4.245
-4.265
-4.29
-4.32
-4.345
-4.375
-4.42
-4.45
-4.475
-4.51
-4.545
-4.57
-4.6
-4.62
-4.635
-4.655
-4.68
-4.695
-4.705
-4.71
-4.715
-4.725
-4.73
-4.735
-4.735
-4.74
-4.735
-4.73
-4.715
-4.715
-4.72
-4.715
-4.72
-4.73
-4.73
-4.72
-4.715
-4.72
-4.715
-4.715
-4.72
-4.73
-4.73
-4.73
-4.73
-4.735
-4.745
-4.74
-4.745
-4.75
-4.755
-4.76
-4.765
-4.765
-4.78
-4.775
-4.78
-4.785
-4.795
-4.785
-4.785
-4.795
-4.81
-4.805
-4.81
-4.81
-4.805
-4.81
-4.82
-4.82
-4.815
-4.815
-4.83
-4.835
-4.835
-4.84
-4.84
-4.845
-4.845
-4.84
-4.83
-4.84
-4.84
-4.845
-4.84
-4.835
-4.83
-4.825
-4.81
-4.795
-4.775
-4.765
-4.77
-4.77
-4.76
-4.75
-4.765
-4.79
-4.795
-4.78
-4.79
-4.795
-4.795
-4.79
-4.795
-4.8
-4.795
-4.795
-4.795
-4.81
-4.845
-4.86
-4.865
-4.875
-4.875
-4.87
-4.875
-4.885
-4.89
-4.88
-4.88
-4.88
-4.875
-4.875
-4.875
-4.87
-4.865
-4.845
-4.805
-4.72
-4.595
-4.44
-4.255
-4.09
-4.1
-4.18
-4.265
-4.395
-4.55
-4.765
-5.005
-5.19
-5.295
-5.285
-5.19
-5.085
-4.99
-4.935
-4.9
-4.89
-4.875
-4.87
-4.86
-4.855
-4.85
-4.845
-4.845
-4.855
-4.845
-4.845
-4.825
-4.815
-4.805
-4.805
-4.805
-4.795
-4.8
-4.795
-4.78
-4.77
-4.77
-4.75
-4.74
-4.73
-4.725
-4.71
-4.705
-4.695
-4.685
-4.67
-4.65
-4.645
-4.63
-4.59
-4.57
-4.55
-4.525
-4.495
-4.475
-4.45
-4.42
-4.395
-4.365
-4.34
-4.32
-4.3
-4.29
-4.265
-4.245
-4.245
-4.245
-4.245
-4.25
-4.25
-4.255
-4.265
-4.27
-4.28
-4.31
-4.34
-4.375
-4.395
-4.425
-4.455
-4.485
-4.515
-4.55
-4.585
-4.61
-4.645
-4.67
-4.695
-4.71
-4.72
-4.73
-4.745
-4.76
-4.765
-4.77
-4.775
-4.78
-4.785
-4.78
-4.78
-4.78
-4.78
-4.78
-4.765
-4.765
-4.765
-4.765
-4.765
-4.75
-4.76
-4.765
-4.765
-4.76
-4.75
-4.75
-4.75
-4.765
-4.765
-4.765
-4.765
-4.765
-4.765
-4.775
-4.775
-4.78
-4.785
-4.795
-4.8
-4.795
-4.8
-4.805
-4.815
-4.815
-4.83
-4.835
-4.84
-4.84
-4.84
-4.845
-4.85
-4.85
-4.85
-4.86
-4.86
-4.86
-4.865
-4.865
-4.87
-4.87
-4.865
-4.865
-4.87
-4.875
-4.875
-4.87
-4.865
-4.875
-4.875
-4.875
-4.88
-4.88
-4.875
-4.87
-4.87
-4.88
-4.88
-4.875
-4.865
-4.855
-4.85
-4.84
-4.825
-4.81
-4.8
-4.805
-4.795
-4.785
-4.785
-4.815
-4.835
-4.83
-4.825
-4.83
-4.835
-4.83
-4.83
-4.84
-4.835
-4.83
-4.83
-4.825
-4.845
-4.88
-4.895
-4.9
-4.895
-4.9
-4.895
-4.905
-4.91
-4.91
-4.905
-4.91
-4.905
-4.905
-4.895
-4.88
-4.875
-4.86
-4.83
-4.775
-4.67
-4.525
-4.36
-4.22
-4.265
-4.345
-4.45
-4.58
-4.685
-4.865
-5.085
-5.23
-5.33
-5.315
-5.2
-5.07
-4.98
-4.93
-4.91
-4.89
-4.875
-4.87
-4.87
-4.865
-4.865
-4.85
-4.85
-4.845
-4.845
-4.845
-4.845
-4.835
-4.84
-4.83
-4.83
-4.825
-4.815
-4.81
-4.81
-4.795
-4.79
-4.775
-4.77
-4.765
-4.75
-4.74
-4.73
-4.72
-4.705
-4.685
-4.665
-4.645
-4.63
-4.61
-4.59
-4.56
-4.545
-4.52
-4.495
-4.46
-4.43
-4.405
-4.385
-4.36
-4.34
-4.32
-4.295
-4.28
-4.265
-4.265
-4.255
-4.255
-4.245
-4.25
-4.255
-4.27
-4.285
-4.295
-4.31
-4.335
-4.375
-4.41
-4.45
-4.485
-4.52
-4.56
-4.605
-4.635
-4.655
-4.685
-4.72
-4.735
-4.755
-4.765
-4.785
-4.795
-4.805
-4.815
-4.825
-4.83
-4.84
-4.84
-4.84
-4.845
-4.84
-4.84
-4.83
-4.83
-4.83
-4.825
-4.81
-4.81
-4.81
-4.805
-4.805
-4.8
-4.8
-4.8
-4.8
-4.8
-4.8
-4.795
-4.8
-4.81
-4.81
-4.805
-4.81
-4.81
-4.815
-4.825
-4.83
-4.835
-4.84
-4.845
-4.845
-4.845
-4.845
-4.85
-4.85
-4.86
-4.87
-4.875
-4.875
-4.87
-4.88
-4.89
-4.89
-4.875
-4.875
-4.875
-4.875
-4.89
-4.9
-4.905
-4.905
-4.91
-4.915
-4.915
-4.895
-4.895
-4.895
-4.895
-4.895
-4.9
-4.9
-4.895
-4.89
-4.895
-4.905
-4.895
-4.9
-4.9
-4.905
-4.905
-4.91
-4.905
-4.905
-4.905
-4.905
-4.9
-4.89
-4.89
-4.875
-4.865
-4.86
-4.85
-4.84
-4.825
-4.815
-4.81
-4.805
-4.79
-4.78
-4.805
-4.825
-4.83
-4.82
-4.825
-4.835
-4.835
-4.82
-4.82
-4.83
-4.835
-4.83
-4.83
-4.845
-4.875
-4.89
-4.895
-4.89
-4.895
-4.9
-4.905
-4.905
-4.905
-4.905
-4.9
-4.895
-4.895
-4.895
-4.89
-4.875
-4.87
-4.865
-4.83
-4.745
-4.62
-4.46
-4.285
-4.265
-4.35
-4.44
-4.555
-4.63
-4.695
-4.875
-5.075
-5.245
-5.345
-5.26
-5.11
-4.99
-4.925
-4.9
-4.88
-4.87
-4.85
-4.845
-4.85
-4.845
-4.845
-4.84
-4.835
-4.83
-4.83
-4.825
-4.815
-4.815
-4.81
-4.805
-4.8
-4.8
-4.795
-4.78
-4.765
-4.765
-4.76
-4.745
-4.73
-4.72
-4.715
-4.705
-4.695
-4.67
-4.655
-4.645
-4.63
-4.605
-4.585
-4.57
-4.54
-4.51
-4.485
-4.46
-4.43
-4.395
-4.365
-4.34
-4.31
-4.285
-4.27
-4.245
-4.235
-4.215
-4.2
-4.19
-4.195
-4.185
-4.18
-4.19
-4.2
-4.21
-4.225
-4.245
-4.275
-4.3
-4.33
-4.37
-4.41
-4.44
-4.48
-4.52
-4.555
-4.585
-4.615
-4.645
-4.655
-4.685
-4.71
-4.725
-4.735
-4.745
-4.765
-4.775
-4.775
-4.78
-4.775
-4.785
-4.795
-4.795
-4.78
-4.785
-4.79
-4.785
-4.785
-4.78
-4.78
-4.78
-4.775
-4.775
-4.765
-4.765
-4.765
-4.765
-4.765
-4.765
-4.765
-4.76
-4.75
-4.765
-4.775
-4.765
-4.775
-4.775
-4.775
-4.785
-4.795
-4.795
-4.795
-4.8
-4.8
-4.805
-4.805
-4.81
-4.83
-4.83
-4.835
-4.84
-4.84
-4.83
-4.84
-4.84
-4.845
-4.85
-4.85
-4.85
-4.855
-4.86
-4.865
-4.86
-4.855
-4.86
-4.865
-4.86
-4.86
-4.865
-4.865
-4.87
-4.875
-4.87
-4.87
-4.87
-4.87
-4.87
-4.865
-4.865
-4.87
-4.87
-4.86
-4.86
-4.865
-4.87
-4.865
-4.87
-4.87
-4.865
-4.865
-4.86
-4.85
-4.85
-4.85
-4.855
-4.85
-4.85
-4.84
-4.83
-4.82
-4.805
-4.79
-4.775
-4.785
-4.775
-4.765
-4.75
-4.75
-4.775
-4.785
-4.785
-4.775
-4.785
-4.805
-4.795
-4.78
-4.775
-4.79
-4.795
-4.8
-4.805
-4.83
-4.85
-4.865
-4.87
-4.87
-4.87
-4.87
-4.87
-4.875
-4.875
-4.87
-4.87
-4.87
-4.87
-4.865
-4.85
-4.85
-4.84
-4.835
-4.8
-4.715
-4.585
-4.43
-4.265
-4.28
-4.36
-4.45
-4.57
-4.625
-4.695
-4.89
-5.09
-5.275
-5.325
-5.22
-5.065
-4.955
-4.905
-4.875
-4.86
-4.855
-4.83
-4.83
-4.825
-4.81
-4.82
-4.815
-4.815
-4.81
-4.805
-4.8
-4.795
-4.785
-4.785
-4.78
-4.775
-4.775
-4.765
-4.76
-4.74
-4.74
-4.73
-4.725
-4.71
-4.705
-4.695
-4.68
-4.67
-4.665
-4.65
-4.62
-4.605
-4.595
-4.57
-4.545
-4.52
-4.495
-4.47
-4.44
-4.41
-4.38
-4.36
-4.34
-4.31
-4.28
-4.255
-4.23
-4.215
-4.2
-4.19
-4.18
-4.18
-4.185
-4.18
-4.19
-4.2
-4.2
-4.22
-4.235
-4.26
-4.285
-4.32
-4.355
-4.385
-4.425
-4.46
-4.505
-4.535
-4.57
-4.59
-4.615
-4.645
-4.665
-4.695
-4.71
-4.72
-4.725
-4.73
-4.735
-4.75
-4.76
-4.765
-4.765
-4.77
-4.765
-4.765
-4.77
-4.77
-4.765
-4.765
-4.765
-4.78
-4.775
-4.77
-4.75
-4.745
-4.75
-4.75
-4.75
-4.75
-4.74
-4.74
-4.74
-4.745
-4.74
-4.74
-4.74
-4.745
-4.75
-4.75
-4.765
-4.765
-4.77
-4.765
-4.785
-4.785
-4.785
-4.795
-4.8
-4.805
-4.81
-4.81
-4.815
-4.825
-4.835
-4.83
-4.835
-4.84
-4.845
-4.845
-4.845
-4.85
-4.85
-4.85
-4.85
-4.85
-4.865
-4.875
-4.865
-4.85
-4.855
-4.86
-4.865
-4.865
-4.86
-4.85
-4.865
-4.87
-4.865
-4.87
-4.87
-4.87
-4.87
-4.87
-4.87
-4.865
-4.855
-4.87
-4.875
-4.87
-4.86
-4.845
-4.85
-4.85
-4.85
-4.855
-4.85
-4.855
-4.86
-4.85
-4.855
-4.85
-4.855
-4.845
-4.84
-4.825
-4.805
-4.8
-4.785
-4.78
-4.775
-4.77
-4.76
-4.76
-4.775
-4.79
-4.795
-4.795
-4.8
-4.81
-4.8
-4.785
-4.8
-4.795
-4.81
-4.815
-4.83
-4.835
-4.855
-4.87
-4.87
-4.88
-4.875
-4.875
-4.88
-4.88
-4.875
-4.87
-4.87
-4.87
-4.87
-4.86
-4.855
-4.85
-4.845
-4.83
-4.825
-4.77
-4.665
-4.525
-4.345
-4.255
-4.325
-4.415
-4.505
-4.58
-4.6
-4.735
-4.965
-5.17
-5.31
-5.265
-5.12
-4.995
-4.915
-4.88
-4.865
-4.85
-4.845
-4.83
-4.835
-4.83
-4.83
-4.825
-4.815
-4.81
-4.805
-4.805
-4.81
-4.805
-4.795
-4.785
-4.79
-4.785
-4.775
-4.765
-4.765
-4.76
-4.755
-4.745
-4.735
-4.72
-4.71
-4.7
-4.68
-4.67
-4.655
-4.645
-4.635
-4.61
-4.59
-4.57
-4.545
-4.525
-4.505
-4.48
-4.46
-4.425
-4.405
-4.375
-4.34
-4.31
-4.29
-4.275
-4.26
-4.245
-4.225
-4.225
-4.215
-4.21
-4.205
-4.2
-4.215
-4.225
-4.23
-4.255
-4.265
-4.295
-4.325
-4.34
-4.375
-4.41
-4.46
-4.495
-4.525
-4.555
-4.58
-4.605
-4.63
-4.65
-4.665
-4.68
-4.705
-4.72
-4.725
-4.735
-4.745
-4.755
-4.77
-4.765
-4.77
-4.765
-4.775
-4.775
-4.765
-4.765
-4.76
-4.76
-4.75
-4.75
-4.76
-4.76
-4.75
-4.75
-4.74
-4.745
-4.745
-4.75
-4.745
-4.75
-4.75
-4.75
-4.75
-4.745
-4.75
-4.76
-4.77
-4.765
-4.765
-4.775
-4.78
-4.785
-4.785
-4.795
-4.8
-4.805
-4.805
-4.81
-4.815
-4.825
-4.83
-4.835
-4.835
-4.83
-4.85
-4.845
-4.855
-4.85
-4.85
-4.855
-4.85
-4.85
-4.86
-4.86
-4.86
-4.86
-4.855
-4.865
-4.87
-4.86
-4.85
-4.85
-4.85
-4.85
-4.85
-4.85
-4.85
-4.85
-4.85
-4.85
-4.845
-4.85
-4.855
-4.85
-4.85
-4.85
-4.855
-4.86
-4.85
-4.85
-4.85
-4.855
-4.86
-4.85
-4.85
-4.845
-4.845
-4.845
-4.845
-4.845
-4.84
-4.84
-4.835
-4.825
-4.815
-4.8
-4.79
-4.765
-4.76
-4.75
-4.745
-4.735
-4.72
-4.735
-4.745
-4.76
-4.765
-4.76
-4.765
-4.775
-4.765
-4.765
-4.77
-4.775
-4.785
-4.785
-4.795
-4.81
-4.83
-4.845
-4.85
-4.85
-4.85
-4.85
-4.86
-4.85
-4.85
-4.86
-4.855
-4.85
-4.845
-4.845
-4.84
-4.835
-4.83
-4.815
-4.8
-4.76
-4.655
-4.52
-4.35
-4.225
-4.29
-4.39
-4.455
-4.535
-4.575
-4.695
-4.91
-5.13
-5.3
-5.31
-5.175
-5.025
-4.92
-4.875
-4.855
-4.845
-4.835
-4.825
-4.815
-4.815
-4.815
-4.805
-4.805
-4.805
-4.8
-4.775
-4.78
-4.775
-4.77
-4.765
-4.765
-4.76
-4.75
-4.75
-4.745
-4.745
-4.735
-4.72
-4.715
-4.705
-4.7
-4.685
-4.675
-4.665
-4.655
-4.635
-4.615
-4.605
-4.595
-4.58
-4.555
-4.54
-4.505
-4.48
-4.46
-4.425
-4.405
-4.385
-4.35
-4.33
-4.3
-4.275
-4.26
-4.245
-4.23
-4.22
-4.21
-4.2
-4.2
-4.2
-4.2
-4.205
-4.215
-4.23
-4.245
-4.27
-4.285
-4.31
-4.33
-4.375
-4.415
-4.44
-4.48
-4.505
-4.545
-4.57
-4.59
-4.615
-4.65
-4.665
-4.675
-4.68
-4.695
-4.71
-4.715
-4.72
-4.73
-4.735
-4.74
-4.74
-4.74
-4.74
-4.735
-4.74
-4.74
-4.735
-4.735
-4.74
-4.73
-4.735
-4.735
-4.73
-4.73
-4.74
-4.74
-4.74
-4.74
-4.74
-4.735
-4.73
-4.74
-4.745
-4.745
-4.74
-4.75
-4.75
-4.77
-4.765
-4.775
-4.78
-4.785
-4.795
-4.795
-4.8
-4.81
-4.81
-4.805
-4.82
-4.815
-4.825
-4.825
-4.83
-4.84
-4.85
-4.84
-4.84
-4.84
-4.845
-4.85
-4.85
-4.85
-4.85
-4.845
-4.85
-4.85
-4.85
-4.86
-4.85
-4.85
-4.85
-4.86
-4.85
-4.86
-4.865
-4.855
-4.86
-4.86
-4.86
-4.855
-4.86
-4.86
-4.85
-4.855
-4.85
-4.87
-4.86
-4.86
-4.85
-4.86
-4.865
-4.855
-4.85
-4.855
-4.86
-4.855
-4.85
-4.85
-4.85
-4.85
-4.845
-4.835
-4.84
-4.835
-4.815
-4.8
-4.79
-4.775
-4.765
-4.765
-4.75
-4.745
-4.75
-4.775
-4.78
-4.775
-4.765
-4.785
-4.795
-4.78
-4.78
-4.785
-4.795
-4.805
-4.81
-4.825
-4.835
-4.85
-4.86
-4.865
-4.865
-4.865
-4.865
-4.87
-4.87
-4.865
-4.87
-4.87
-4.875
-4.87
-4.86
-4.85
-4.85
-4.84
-4.83
-4.81
-4.73
-4.615
-4.455
-4.29
-4.33
-4.44
-4.505
-4.585
-4.615
-4.655
-4.825
-5.025
-5.225
-5.34
-5.28
-5.135
-4.99
-4.915
-4.88
-4.865
-4.86
-4.85
-4.84
-4.83
-4.83
-4.83
-4.825
-4.825
-4.83
-4.83
-4.81
-4.81
-4.805
-4.805
-4.8
-4.795
-4.785
-4.78
-4.78
-4.775
-4.77
-4.76
-4.74
-4.735
-4.735
-4.725
-4.715
-4.695
-4.68
-4.67
-4.655
-4.635
-4.63
-4.61
-4.59
-4.57
-4.54
-4.52
-4.49
-4.47
-4.44
-4.415
-4.385
-4.365
-4.345
-4.32
-4.3
-4.285
-4.27
-4.245
-4.245
-4.245
-4.24
-4.23
-4.23
-4.235
-4.245
-4.26
-4.265
-4.29
-4.32
-4.345
-4.375
-4.395
-4.44
-4.475
-4.505
-4.545
-4.57
-4.6
-4.63
-4.655
-4.68
-4.7
-4.715
-4.72
-4.74
-4.76
-4.76
-4.765
-4.765
-4.77
-4.78
-4.785
-4.785
-4.79
-4.785
-4.785
-4.79
-4.785
-4.775
-4.775
-4.785
-4.78
-4.78
-4.775
-4.775
-4.78
-4.78
-4.775
-4.775
-4.775
-4.78
-4.78
-4.785
-4.79
-4.795
-4.79
-4.785
-4.8
-4.805
-4.805
-4.815
-4.825
-4.825
-4.83
-4.83
-4.835
-4.84
-4.845
-4.845
-4.845
-4.85
-4.86
-4.87
-4.875
-4.865
-4.86
-4.865
-4.88
-4.875
-4.87
-4.875
-4.88
-4.88
-4.875
-4.875
-4.89
-4.885
-4.89
-4.89
-4.88
-4.89
-4.895
-4.89
-4.89
-4.89
-4.89
-4.89
-4.89
-4.895
-4.89
-4.89
-4.89
-4.885
-4.88
-4.88
-4.89
-4.89
-4.885
-4.88
-4.875
-4.87
-4.865
-4.88
-4.885
-4.875
-4.875
-4.87
-4.865
-4.87
-4.865
-4.87
-4.87
-4.87
-4.865
-4.86
-4.85
-4.845
-4.835
-4.815
-4.795
-4.78
-4.775
-4.775
-4.765
-4.75
-4.75
-4.775
-4.785
-4.785
-4.775
-4.785
-4.795
-4.8
-4.795
-4.8
-4.805
-4.805
-4.815
-4.83
-4.835
-4.85
-4.87
-4.88
-4.875
-4.875
-4.88
-4.895
-4.88
-4.88
-4.89
-4.885
-4.87
-4.87
-4.855
-4.855
-4.86
-4.85
-4.835
-4.81
-4.73
-4.61
-4.44
-4.3
-4.365
-4.47
-4.54
-4.59
-4.595
-4.68
-4.87
-5.065
-5.26
-5.33
-5.215
-5.065
-4.955
-4.9
-4.865
-4.85
-4.845
-4.83
-4.835
-4.84
-4.835
-4.825
-4.825
-4.825
-4.83
-4.825
-4.81
-4.81
-4.81
-4.805
-4.8
-4.795
-4.79
-4.78
-4.775
-4.765
-4.765
-4.765
-4.76
-4.735
-4.74
-4.725
-4.715
-4.71
-4.695
-4.68
-4.655
-4.645
-4.63
-4.615
-4.59
-4.57
-4.55
-4.535
-4.515
-4.49
-4.475
-4.445
-4.42
-4.395
-4.375
-4.35
-4.33
-4.32
-4.3
-4.295
-4.28
-4.275
-4.275
-4.28
-4.28
-4.285
-4.29
-4.29
-4.31
-4.33
-4.345
-4.365
-4.395
-4.42
-4.445
-4.48
-4.51
-4.54
-4.57
-4.595
-4.615
-4.645
-4.66
-4.67
-4.695
-4.705
-4.715
-4.715
-4.725
-4.735
-4.74
-4.745
-4.745
-4.735
-4.745
-4.74
-4.75
-4.745
-4.745
-4.74
-4.74
-4.74
-4.73
-4.73
-4.73
-4.735
-4.73
-4.725
-4.735
-4.735
-4.735
-4.74
-4.74
-4.745
-4.75
-4.76
-4.75
-4.745
-4.75
-4.765
-4.775
-4.775
-4.78
-4.775
-4.785
-4.78
-4.795
-4.795
-4.8
-4.805
-4.81
-4.81
-4.81
-4.815
-4.82
-4.83
-4.835
-4.825
-4.83
-4.84
-4.845
-4.845
-4.845
-4.84
-4.84
-4.835
-4.84
-4.845
-4.85
-4.845
-4.84
-4.845
-4.845
-4.845
-4.85
-4.845
-4.845
-4.845
-4.845
-4.845
-4.85
-4.845
-4.85
-4.84
-4.84
-4.845
-4.845
-4.845
-4.84
-4.84
-4.835
-4.84
-4.84
-4.84
-4.84
-4.84
-4.84
-4.84
-4.845
-4.845
-4.83
-4.835
-4.83
-4.83
-4.83
-4.825
-4.825
-4.82
-4.81
-4.8
-4.775
-4.765
-4.75
-4.745
-4.74
-4.72
-4.71
-4.715
-4.73
-4.75
-4.75
-4.75
-4.755
-4.765
-4.765
-4.77
-4.78
-4.785
-4.79
-4.795
-4.81
-4.825
-4.845
-4.85
-4.855
-4.85
-4.855
-4.865
-4.87
-4.865
-4.86
-4.865
-4.87
-4.865
-4.855
-4.85
-4.855
-4.85
-4.85
-4.835
-4.805
-4.735
-4.615
-4.455
-4.3
-4.35
-4.43
-4.495
-4.58
-4.61
-4.73
-4.935
-5.13
-5.29
-5.31
-5.19
-5.05
-4.945
-4.89
-4.865
-4.85
-4.845
-4.835
-4.83
-4.825
-4.815
-4.815
-4.825
-4.81
-4.805
-4.795
-4.795
-4.795
-4.785
-4.785
-4.78
-4.775
-4.765
-4.765
-4.76
-4.755
-4.745
-4.735
-4.735
-4.725
-4.71
-4.705
-4.69
-4.675
-4.665
-4.65
-4.64
-4.62
-4.61
-4.6
-4.58
-4.555
-4.54
-4.525
-4.5
-4.475
-4.455
-4.43
-4.41
-4.39
-4.36
-4.345
-4.325
-4.315
-4.29
-4.285
-4.275
-4.275
-4.265
-4.265
-4.275
-4.28
-4.29
-4.3
-4.305
-4.335
-4.35
-4.375
-4.39
-4.425
-4.455
-4.48
-4.505
-4.54
-4.57
-4.59
-4.615
-4.63
-4.635
-4.655
-4.675
-4.695
-4.7
-4.705
-4.71
-4.715
-4.72
-4.73
-4.73
-4.73
-4.73
-4.73
-4.73
-4.735
-4.725
-4.72
-4.72
-4.725
-4.72
-4.725
-4.73
-4.73
-4.725
-4.725
-4.73
-4.72
-4.73
-4.73
-4.735
-4.74
-4.735
-4.745
-4.745
-4.745
-4.75
-4.76
-4.76
-4.76
-4.765
-4.765
-4.775
-4.78
-4.785
-4.79
-4.8
-4.8
-4.8
-4.8
-4.805
-4.81
-4.815
-4.815
-4.815
-4.815
-4.81
-4.82
-4.825
-4.815
-4.825
-4.825
-4.825
-4.825
-4.825
-4.83
-4.83
-4.83
-4.84
-4.84
-4.835
-4.83
-4.835
-4.83
-4.835
-4.83
-4.83
-4.83
-4.835
-4.83
-4.83
-4.835
-4.835
-4.835
-4.84
-4.83
-4.835
-4.84
-4.835
-4.83
-4.83
-4.825
-4.83
-4.835
-4.835
-4.825
-4.83
-4.83
-4.83
-4.83
-4.825
-4.825
-4.825
-4.81
-4.8
-4.785
-4.77
-4.75
-4.74
-4.74
-4.735
-4.715
-4.71
-4.73
-4.745
-4.745
-4.735
-4.74
-4.76
-4.765
-4.76
-4.76
-4.765
-4.77
-4.785
-4.8
-4.8
-4.815
-4.84
-4.845
-4.845
-4.84
-4.845
-4.855
-4.85
-4.85
-4.85
-4.85
-4.86
-4.855
-4.845
-4.835
-4.83
-4.825
-4.81
-4.785
-4.71
-4.585
-4.415
-4.265
-4.32
-4.41
-4.48
-4.545
-4.58
-4.71
-4.92
-5.12
-5.3
-5.315
-5.185
-5.04
-4.94
-4.89
-4.85
-4.845
-4.845
-4.84
-4.83
-4.825
-4.81
-4.81
-4.815
-4.82
-4.81
-4.8
-4.795
-4.8
-4.795
-4.785
-4.78
-4.775
-4.78
-4.775
-4.765
-4.765
-4.755
-4.74
-4.735
-4.725
-4.715
-4.71
-4.7
-4.695
-4.68
-4.665
-4.645
-4.635
-4.615
-4.6
-4.57
-4.56
-4.54
-4.515
-4.485
-4.46
-4.44
-4.41
-4.395
-4.365
-4.345
-4.31
-4.295
-4.29
-4.265
-4.255
-4.255
-4.25
-4.255
-4.255
-4.26
-4.265
-4.28
-4.295
-4.32
-4.345
-4.355
-4.375
-4.395
-4.445
-4.475
-4.505
-4.54
-4.575
-4.59
-4.63
-4.655
-4.675
-4.69
-4.7
-4.71
-4.73
-4.74
-4.745
-4.76
-4.76
-4.765
-4.765
-4.76
-4.76
-4.765
-4.765
-4.765
-4.765
-4.76
-4.745
-4.745
-4.75
-4.76
-4.765
-4.76
-4.745
-4.745
-4.75
-4.75
-4.75
-4.76
-4.765
-4.765
-4.765
-4.775
-4.765
-4.78
-4.785
-4.795
-4.79
-4.795
-4.795
-4.795
-4.805
-4.81
-4.825
-4.83
-4.83
-4.83
-4.83
-4.835
-4.845
-4.845
-4.845
-4.845
-4.845
-4.855
-4.85
-4.86
-4.865
-4.86
-4.865
-4.865
-4.865
-4.86
-4.86
-4.86
-4.865
-4.87
-4.865
-4.86
-4.865
-4.865
-4.865
-4.87
-4.875
-4.875
-4.865
-4.865
-4.865
-4.87
-4.87
-4.865
-4.855
-4.85
-4.85
-4.85
-4.855
-4.85
-4.85
-4.845
-4.845
-4.845
-4.845
-4.84
-4.815
-4.81
-4.795
-4.79
-4.8
-4.785
-4.77
-4.765
-4.775
-4.795
-4.81
-4.795
-4.785
-4.805
-4.81
-4.805
-4.795
-4.805
-4.805
-4.805
-4.81
-4.805
-4.83
-4.855
-4.86
-4.865
-4.875
-4.875
-4.875
-4.875
-4.88
-4.88
-4.875
-4.875
-4.87
-4.87
-4.865
-4.86
-4.855
-4.85
-4.825
-4.75
-4.635
-4.485
-4.305
-4.13
-4.13
-4.19
-4.245
-4.34
-4.46
-4.665
-4.925
-5.165
-5.3
-5.265
-5.175
-5.065
-4.975
-4.925
-4.9
-4.88
-4.87
-4.87
-4.86
-4.86
-4.86
-4.85
-4.855
-4.845
-4.845
-4.845
-4.84
-4.83
-4.835
-4.83
-4.83
-4.815
-4.81
-4.805
-4.805
-4.795
-4.785
-4.775
-4.765
-4.765
-4.75
-4.74
-4.73
-4.72
-4.71
-4.7
-4.675
-4.665
-4.65
-4.63
-4.61
-4.585
-4.56
-4.545
-4.525
-4.505
-4.475
-4.44
-4.415
-4.395
-4.375
-4.355
-4.34
-4.325
-4.31
-4.31
-4.31
-4.305
-4.3
-4.295
-4.31
-4.32
-4.33
-4.345
-4.365
-4.385
-4.405
-4.425
-4.46
-4.49
-4.52
-4.55
-4.585
-4.615
-4.645
-4.67
-4.68
-4.71
-4.72
-4.74
-4.76
-4.775
-4.78
-4.79
-4.785
-4.785
-4.795
-4.805
-4.805
-4.8
-4.8
-4.8
-4.805
-4.805
-4.795
-4.79
-4.78
-4.78
-4.78
-4.785
-4.785
-4.775
-4.775
-4.765
-4.765
-4.765
-4.77
-4.775
-4.77
-4.775
-4.78
-4.785
-4.78
-4.78
-4.79
-4.795
-4.785
-4.785
-4.795
-4.805
-4.81
-4.815
-4.825
-4.83
-4.83
-4.83
-4.835
-4.84
-4.845
-4.85
-4.85
-4.85
-4.86
-4.875
-4.87
-4.875
-4.87
-4.87
-4.875
-4.865
-4.87
-4.865
-4.865
-4.87
-4.87
-4.88
-4.875
-4.88
-4.88
-4.88
-4.875
-4.875
-4.875
-4.88
-4.88
-4.88
-4.88
-4.88
-4.89
-4.89
-4.88
-4.875
-4.875
-4.88
-4.875
-4.875
-4.87
-4.88
-4.88
-4.885
-4.865
-4.865
-4.87
-4.87
-4.86
-4.86
-4.85
-4.84
-4.825
-4.815
-4.8
-4.795
-4.795
-4.785
-4.775
-4.775
-4.805
-4.815
-4.81
-4.81
-4.81
-4.825
-4.81
-4.805
-4.81
-4.81
-4.815
-4.815
-4.815
-4.83
-4.86
-4.87
-4.87
-4.875
-4.88
-4.885
-4.89
-4.88
-4.875
-4.88
-4.88
-4.87
-4.865
-4.87
-4.86
-4.86
-4.845
-4.83
-4.795
-4.71
-4.59
-4.425
-4.26
-4.245
-4.33
-4.4
-4.495
-4.555
-4.665
-4.85
-5.065
-5.23
-5.295
-5.205
-5.08
-4.97
-4.91
-4.88
-4.87
-4.865
-4.86
-4.85
-4.84
-4.835
-4.83
-4.83
-4.825
-4.825
-4.815
-4.815
-4.81
-4.81
-4.805
-4.8
-4.795
-4.795
-4.785
-4.78
-4.775
-4.765
-4.76
-4.745
-4.73
-4.72
-4.715
-4.705
-4.695
-4.675
-4.665
-4.65
-4.635
-4.615
-4.6
-4.585
-4.555
-4.525
-4.505
-4.485
-4.46
-4.425
-4.395
-4.36
-4.335
-4.31
-4.285
-4.265
-4.245
-4.23
-4.22
-4.21
-4.205
-4.195
-4.2
-4.2
-4.215
-4.225
-4.235
-4.26
-4.285
-4.31
-4.34
-4.375
-4.405
-4.45
-4.485
-4.515
-4.55
-4.59
-4.62
-4.655
-4.675
-4.7
-4.72
-4.73
-4.745
-4.75
-4.76
-4.775
-4.78
-4.795
-4.795
-4.795
-4.795
-4.8
-4.805
-4.8
-4.8
-4.805
-4.8
-4.795
-4.795
-4.795
-4.785
-4.785
-4.79
-4.79
-4.785
-4.78
-4.78
-4.785
-4.785
-4.78
-4.775
-4.775
-4.78
-4.785
-4.79
-4.785
-4.79
-4.795
-4.795
-4.8
-4.805
-4.805
-4.815
-4.815
-4.825
-4.83
-4.83
-4.845
-4.85
-4.85
-4.855
-4.855
-4.86
-4.86
-4.865
-4.87
-4.87
-4.87
-4.88
-4.88
-4.88
-4.875
-4.875
-4.88
-4.875
-4.88
-4.89
-4.895
-4.89
-4.895
-4.89
-4.89
-4.89
-4.895
-4.895
-4.895
-4.89
-4.895
-4.89
-4.895
-4.9
-4.89
-4.89
-4.895
-4.88
-4.875
-4.89
-4.895
-4.89
-4.89
-4.88
-4.885
-4.88
-4.875
-4.875
-4.875
-4.875
-4.865
-4.865
-4.87
-4.87
-4.865
-4.865
-4.85
-4.85
-4.84
-4.825
-4.805
-4.8
-4.785
-4.785
-4.775
-4.765
-4.785
-4.805
-4.815
-4.8
-4.8
-4.815
-4.815
-4.8
-4.795
-4.8
-4.8
-4.795
-4.8
-4.81
-4.835
-4.85
-4.86
-4.865
-4.87
-4.865
-4.87
-4.875
-4.875
-4.87
-4.87
-4.865
-4.87
-4.86
-4.85
-4.85
-4.845
-4.83
-4.81
-4.76
-4.655
-4.51
-4.33
-4.22
-4.285
-4.375
-4.475
-4.57
-4.59
-4.695
-4.89
-5.105
-5.275
-5.285
-5.165
-5.02
-4.93
-4.88
-4.86
-4.845
-4.84
-4.83
-4.825
-4.815
-4.81
-4.81
-4.805
-4.79
-4.795
-4.795
-4.79
-4.79
-4.785
-4.775
-4.775
-4.775
-4.765
-4.76
-4.75
-4.745
-4.735
-4.725
-4.715
-4.71
-4.7
-4.685
-4.675
-4.665
-4.65
-4.635
-4.62
-4.6
-4.58
-4.555
-4.54
-4.52
-4.495
-4.465
-4.44
-4.415
-4.385
-4.355
-4.33
-4.3
-4.275
-4.245
-4.225
-4.205
-4.195
-4.18
-4.18
-4.165
-4.165
-4.16
-4.16
-4.17
-4.18
-4.195
-4.215
-4.23
-4.26
-4.295
-4.33
-4.36
-4.395
-4.44
-4.48
-4.515
-4.54
-4.57
-4.605
-4.62
-4.65
-4.67
-4.685
-4.695
-4.71
-4.72
-4.72
-4.73
-4.74
-4.74
-4.745
-4.76
-4.76
-4.745
-4.75
-4.76
-4.76
-4.75
-4.745
-4.75
-4.755
-4.75
-4.74
-4.74
-4.745
-4.74
-4.73
-4.735
-4.725
-4.73
-4.72
-4.725
-4.735
-4.73
-4.735
-4.73
-4.745
-4.75
-4.745
-4.75
-4.76
-4.76
-4.765
-4.77
-4.775
-4.78
-4.785
-4.79
-4.795
-4.795
-4.8
-4.805
-4.81
-4.815
-4.815
-4.825
-4.825
-4.83
-4.83
-4.84
-4.84
-4.84
-4.84
-4.845
-4.84
-4.83
-4.84
-4.845
-4.845
-4.845
-4.83
-4.835
-4.85
-4.85
-4.85
-4.845
-4.845
-4.845
-4.85
-4.845
-4.85
-4.845
-4.85
-4.845
-4.845
-4.84
-4.85
-4.85
-4.85
-4.84
-4.85
-4.845
-4.84
-4.84
-4.83
-4.84
-4.85
-4.85
-4.845
-4.84
-4.84
-4.84
-4.83
-4.83
-4.835
-4.835
-4.825
-4.805
-4.795
-4.775
-4.765
-4.76
-4.75
-4.74
-4.72
-4.73
-4.75
-4.77
-4.77
-4.76
-4.755
-4.775
-4.77
-4.765
-4.77
-4.775
-4.775
-4.785
-4.8
-4.805
-4.83
-4.845
-4.85
-4.855
-4.85
-4.86
-4.865
-4.865
-4.86
-4.86
-4.85
-4.85
-4.85
-4.85
-4.845
-4.835
-4.83
-4.81
-4.78
-4.725
-4.62
-4.485
-4.305
-4.29
-4.395
-4.485
-4.59
-4.655
-4.68
-4.845
-5.045
-5.23
-5.315
-5.215
-5.065
-4.94
-4.89
-4.86
-4.835
-4.83
-4.825
-4.815
-4.81
-4.8
-4.8
-4.8
-4.805
-4.8
-4.785
-4.78
-4.785
-4.78
-4.78
-4.775
-4.765
-4.765
-4.765
-4.76
-4.75
-4.745
-4.74
-4.73
-4.71
-4.7
-4.69
-4.68
-4.665
-4.655
-4.64
-4.63
-4.6
-4.59
-4.57
-4.55
-4.525
-4.495
-4.475
-4.445
-4.42
-4.39
-4.36
-4.33
-4.3
-4.285
-4.26
-4.235
-4.22
-4.2
-4.195
-4.19
-4.18
-4.17
-4.165
-4.17
-4.18
-4.19
-4.205
-4.225
-4.255
-4.29
-4.32
-4.35
-4.395
-4.43
-4.47
-4.505
-4.535
-4.57
-4.605
-4.63
-4.65
-4.665
-4.68
-4.705
-4.72
-4.735
-4.735
-4.74
-4.745
-4.75
-4.75
-4.75
-4.76
-4.765
-4.76
-4.77
-4.77
-4.77
-4.765
-4.765
-4.76
-4.76
-4.76
-4.765
-4.76
-4.76
-4.75
-4.75
-4.76
-4.745
-4.745
-4.745
-4.75
-4.765
-4.765
-4.765
-4.765
-4.765
-4.765
-4.77
-4.775
-4.785
-4.79
-4.785
-4.795
-4.805
-4.81
-4.81
-4.815
-4.825
-4.83
-4.83
-4.83
-4.835
-4.83
-4.84
-4.845
-4.845
-4.85
-4.85
-4.86
-4.85
-4.85
-4.85
-4.855
-4.85
-4.86
-4.855
-4.86
-4.86
-4.865
-4.865
-4.865
-4.865
-4.87
-4.865
-4.87
-4.865
-4.87
-4.865
-4.86
-4.865
-4.87
-4.86
-4.855
-4.85
-4.865
-4.85
-4.86
-4.865
-4.855
-4.85
-4.855
-4.85
-4.85
-4.86
-4.86
-4.86
-4.85
-4.85
-4.85
-4.855
-4.85
-4.85
-4.85
-4.84
-4.835
-4.83
-4.825
-4.81
-4.795
-4.785
-4.765
-4.76
-4.75
-4.735
-4.74
-4.75
-4.775
-4.765
-4.765
-4.775
-4.78
-4.77
-4.765
-4.78
-4.785
-4.785
-4.805
-4.815
-4.82
-4.835
-4.85
-4.86
-4.85
-4.85
-4.865
-4.875
-4.86
-4.855
-4.86
-4.855
-4.85
-4.85
-4.85
-4.845
-4.84
-4.835
-4.82
-4.8
-4.745
-4.635
-4.48
-4.3
-4.34
-4.46
-4.535
-4.61
-4.645
-4.68
-4.84
-5.035
-5.22
-5.325
-5.255
-5.095
-4.955
-4.895
-4.865
-4.85
-4.84
-4.83
-4.825
-4.825
-4.82
-4.815
-4.82
-4.81
-4.805
-4.8
-4.805
-4.805
-4.805
-4.795
-4.78
-4.775
-4.78
-4.77
-4.765
-4.76
-4.76
-4.75
-4.74
-4.735
-4.72
-4.71
-4.7
-4.685
-4.675
-4.665
-4.65
-4.635
-4.615
-4.6
-4.585
-4.56
-4.54
-4.525
-4.505
-4.48
-4.445
-4.415
-4.395
-4.375
-4.345
-4.325
-4.295
-4.275
-4.26
-4.245
-4.235
-4.235
-4.225
-4.215
-4.22
-4.22
-4.225
-4.235
-4.255
-4.265
-4.295
-4.325
-4.35
-4.38
-4.42
-4.455
-4.485
-4.525
-4.55
-4.585
-4.615
-4.645
-4.67
-4.685
-4.705
-4.72
-4.735
-4.745
-4.755
-4.77
-4.775
-4.775
-4.775
-4.785
-4.785
-4.785
-4.785
-4.78
-4.785
-4.785
-4.78
-4.78
-4.78
-4.775
-4.775
-4.775
-4.78
-4.775
-4.775
-4.775
-4.78
-4.78
-4.78
-4.79
-4.78
-4.78
-4.785
-4.795
-4.795
-4.8
-4.8
-4.805
-4.81
-4.815
-4.815
-4.825
-4.825
-4.83
-4.84
-4.845
-4.845
-4.845
-4.85
-4.85
-4.85
-4.86
-4.865
-4.87
-4.865
-4.865
-4.87
-4.87
-4.88
-4.88
-4.88
-4.88
-4.875
-4.88
-4.885
-4.89
-4.89
-4.89
-4.89
-4.88
-4.88
-4.875
-4.885
-4.88
-4.88
-4.875
-4.88
-4.89
-4.89
-4.88
-4.875
-4.875
-4.875
-4.87
-4.87
-4.875
-4.87
-4.87
-4.875
-4.875
-4.87
-4.865
-4.87
-4.87
-4.865
-4.86
-4.86
-4.865
-4.865
-4.86
-4.855
-4.85
-4.85
-4.85
-4.84
-4.83
-4.82
-4.8
-4.79
-4.775
-4.77
-4.765
-4.75
-4.745
-4.765
-4.785
-4.795
-4.775
-4.78
-4.785
-4.785
-4.78
-4.795
-4.79
-4.78
-4.795
-4.805
-4.81
-4.84
-4.845
-4.85
-4.855
-4.86
-4.855
-4.85
-4.85
-4.855
-4.865
-4.86
-4.855
-4.85
-4.845
-4.83
-4.83
-4.83
-4.815
-4.795
-4.735
-4.635
-4.49
-4.325
-4.165
-4.18
-4.255
-4.295
-4.38
-4.47
-4.615
-4.85
-5.09
-5.275
-5.32
-5.22
-5.1
-4.985
-4.905
-4.87
-4.85
-4.83
-4.83
-4.825
-4.815
-4.815
-4.815
-4.81
-4.81
-4.81
-4.81
-4.805
-4.8
-4.795
-4.79
-4.785
-4.775
-4.765
-4.765
-4.765
-4.76
-4.76
-4.75
-4.74
-4.74
-4.725
-4.72
-4.7
-4.695
-4.68
-4.675
-4.66
-4.645
-4.62
-4.61
-4.59
-4.575
-4.545
-4.525
-4.485
-4.48
-4.44
-4.42
-4.395
-4.375
-4.345
-4.33
-4.31
-4.29
-4.275
-4.265
-4.26
-4.245
-4.245
-4.245
-4.25
-4.255
-4.26
-4.265
-4.285
-4.3
-4.33
-4.35
-4.385
-4.415
-4.445
-4.475
-4.505
-4.54
-4.57
-4.6
-4.62
-4.645
-4.665
-4.685
-4.695
-4.71
-4.72
-4.73
-4.74
-4.745
-4.755
-4.76
-4.75
-4.75
-4.75
-4.76
-4.765
-4.765
-4.755
-4.745
-4.75
-4.76
-4.76
-4.75
-4.76
-4.75
-4.75
-4.745
-4.75
-4.75
-4.76
-4.76
-4.755
-4.745
-4.755
-4.76
-4.765
-4.765
-4.765
-4.765
-4.78
-4.79
-4.785
-4.795
-4.795
-4.805
-4.81
-4.81
-4.815
-4.815
-4.825
-4.83
-4.83
-4.83
-4.84
-4.84
-4.845
-4.85
-4.855
-4.85
-4.85
-4.855
-4.865
-4.86
-4.865
-4.865
-4.87
-4.87
-4.87
-4.87
-4.87
-4.87
-4.875
-4.89
-4.88
-4.875
-4.875
-4.87
-4.87
-4.87
-4.87
-4.87
-4.87
-4.87
-4.865
-4.86
-4.865
-4.875
-4.875
-4.865
-4.87
-4.87
-4.865
-4.865
-4.865
-4.865
-4.865
-4.865
-4.87
-4.87
-4.865
-4.86
-4.85
-4.845
-4.84
-4.83
-4.805
-4.79
-4.785
-4.785
-4.78
-4.765
-4.765
-4.78
-4.805
-4.805
-4.785
-4.79
-4.8
-4.805
-4.795
-4.805
-4.81
-4.815
-4.83
-4.84
-4.835
-4.845
-4.86
-4.87
-4.875
-4.875
-4.88
-4.875
-4.88
-4.88
-4.875
-4.87
-4.88
-4.875
-4.865
-4.85
-4.845
-4.845
-4.84
-4.81
-4.76
-4.645
-4.49
-4.31
-4.285
-4.39
-4.475
-4.57
-4.615
-4.65
-4.81
-5.025
-5.225
-5.325
-5.235
-5.085
-4.955
-4.9
-4.87
-4.85
-4.85
-4.83
-4.84
-4.84
-4.835
-4.83
-4.825
-4.825
-4.825
-4.81
-4.81
-4.805
-4.805
-4.8
-4.8
-4.795
-4.785
-4.78
-4.78
-4.775
-4.765
-4.765
-4.75
-4.735
-4.72
-4.715
-4.695
-4.675
-4.67
-4.655
-4.645
-4.63
-4.605
-4.59
-4.56
-4.545
-4.525
-4.505
-4.47
-4.44
-4.41
-4.4
-4.375
-4.345
-4.315
-4.285
-4.265
-4.255
-4.235
-4.22
-4.215
-4.2
-4.2
-4.2
-4.2
-4.21
-4.23
-4.245
-4.26
-4.275
-4.305
-4.33
-4.365
-4.405
-4.45
-4.485
-4.52
-4.555
-4.585
-4.615
-4.65
-4.67
-4.7
-4.715
-4.735
-4.75
-4.76
-4.775
-4.78
-4.785
-4.79
-4.795
-4.795
-4.795
-4.795
-4.795
-4.8
-4.8
-4.8
-4.8
-4.8
-4.79
-4.785
-4.79
-4.785
-4.78
-4.785
-4.785
-4.79
-4.785
-4.785
-4.79
-4.785
-4.8
-4.8
-4.8
-4.8
-4.815