250
3.68
3.695
3.695
3.69
3.67
3.685
3.685
3.7
3.7
3.715
3.71
3.72
3.73
3.745
3.755
3.755
3.775
3.79
3.82
3.825
3.82
3.82
3.84
3.86
3.875
3.86
3.83
3.805
3.805
3.79
3.76
3.735
3.7
3.675
3.67
3.655
3.65
3.65
3.64
3.645
3.645
3.65
3.65
3.65
3.65
3.66
3.65
3.64
3.66
3.675
3.675
3.695
3.74
3.8
3.885
4.05
4.145
4.295
4.475
4.68
4.855
4.965
4.875
4.61
4.345
4.11
3.9
3.765
3.655
3.6
3.62
3.625
3.65
3.645
3.635
3.605
3.575
3.575
3.56
3.54
3.53
3.545
3.54
3.54
3.55
3.545
3.55
3.535
3.54
3.555
3.545
3.545
3.54
3.545
3.54
3.52
3.525
3.52
3.52
3.53
3.53
3.53
3.52
3.52
3.52
3.52
3.495
3.505
3.505
3.5
3.505
3.51
3.515
3.495
3.495
3.505
3.505
3.485
3.505
3.505
3.515
3.52
3.53
3.525
3.535
3.555
3.565
3.59
3.61
3.63
3.655
3.665
3.695
3.74
3.775
3.805
3.825
3.835
3.85
3.875
3.89
3.9
3.885
3.87
3.855
3.855
3.835
3.82
3.81
3.79
3.775
3.77
3.755
3.745
3.74
3.735
3.72
3.73
3.715
3.725
3.715
3.71
3.695
3.7
3.7
3.71
3.695
3.71
3.705
3.715
3.705
3.705
3.7
3.71
3.705
3.71
3.715
3.695
3.715
3.695
3.695
3.68
3.695
3.7
3.7
3.685
3.705
3.7
3.705
3.71
3.71
3.71
3.7
3.7
3.715
3.7
3.69
3.68
3.685
3.685
3.695
3.685
3.675
3.675
3.68
3.685
3.69
3.695
3.685
3.7
3.78
3.86
3.81
3.775
3.74
3.735
3.72
3.73
3.72
3.71
3.715
3.705
3.695
3.685
3.685
3.695
3.695
3.695
3.7
3.695
3.695
3.695
3.69
3.695
3.695
3.72
3.72
3.725
3.73
3.735
3.745
3.745
3.77
3.77
3.78
3.79
3.82
3.835
3.84
3.825
3.835
3.865
3.885
3.91
3.875
3.84
3.845
3.83
3.82
3.79
3.75
3.74
3.715
3.68
3.695
3.69
3.69
3.68
3.69
3.69
3.685
3.685
3.675
3.675
3.67
3.695
3.685
3.685
3.695
3.695
3.735
3.785
3.86
3.955
4.055
4.215
4.345
4.52
4.7
4.87
5.005
4.95
4.71
4.49
4.245
3.99
3.85
3.765
3.74
3.73
3.74
3.72
3.7
3.665
3.65
3.625
3.6
3.61
3.575
3.575
3.565
3.57
3.57
3.57
3.565
3.56
3.56
3.57
3.565
3.555
3.56
3.56
3.555
3.565
3.56
3.545
3.54
3.555
3.56
3.565
3.56
3.555
3.54
3.53
3.525
3.525
3.52
3.525
3.52
3.52
3.52
3.53
3.51
3.515
3.52
3.51
3.51
3.505
3.51
3.52
3.52
3.53
3.52
3.515
3.56
3.565
3.595
3.62
3.63
3.65
3.695
3.72
3.74
3.78
3.81
3.84
3.875
3.885
3.89
3.9
3.9
3.89
3.885
3.905
3.88
3.86
3.85
3.82
3.815
3.795
3.785
3.78
3.76
3.755
3.755
3.745
3.735
3.735
3.72
3.73
3.735
3.735
3.725
3.72
3.71
3.7
3.715
3.715
3.71
3.71
3.72
3.72
3.715
3.705
3.695
3.685
3.685
3.695
3.705
3.695
3.695
3.695
3.685
3.695
3.69
3.68
3.685
3.675
3.67
3.68
3.675
3.695
3.685
3.685
3.7
3.7
3.69
3.695
3.685
3.7
3.71
3.695
3.685
3.69
3.69
3.695
3.685
3.695
3.68
3.69
3.675
3.685
3.695
3.695
3.7
3.71
3.695
3.695
3.695
3.695
3.69
3.695
3.7
3.695
3.725
3.69
3.7
3.695
3.705
3.695
3.715
3.71
3.715
3.71
3.705
3.715
3.73
3.74
3.745
3.765
3.77
3.79
3.79
3.795
3.82
3.85
3.84
3.83
3.82
3.84
3.88
3.88
3.87
3.85
3.825
3.82
3.825
3.785
3.765
3.735
3.725
3.715
3.715
3.695
3.685
3.68
3.685
3.675
3.68
3.675
3.685
3.695
3.7
3.695
3.705
3.69
3.7
3.695
3.735
3.805
3.875
3.875
3.91
4.09
4.29
4.525
4.72
4.89
5
4.85
4.58
4.36
4.105
3.88
3.77
3.695
3.66
3.635
3.66
3.65
3.655
3.645
3.63
3.615
3.595
3.585
3.585
3.58
3.585
3.575
3.57
3.56
3.565
3.565
3.56
3.55
3.565
3.575
3.57
3.57
3.58
3.565
3.57
3.565
3.565
3.565
3.56
3.56
3.555
3.545
3.535
3.555
3.56
3.535
3.55
3.55
3.555
3.555
3.54
3.555
3.55
3.54
3.54
3.53
3.54
3.535
3.545
3.55
3.55
3.565
3.57
3.57
3.59
3.59
3.61
3.63
3.66
3.675
3.72
3.745
3.755
3.805
3.81
3.84
3.865
3.88
3.89
3.9
3.89
3.895
3.885
3.87
3.85
3.84
3.835
3.82
3.81
3.795
3.78
3.765
3.755
3.745
3.74
3.755
3.745
3.74
3.74
3.72
3.72
3.74
3.74
3.72
3.735
3.74
3.72
3.735
3.735
3.72
3.715
3.72
3.705
3.715
3.715
3.71
3.715
3.71
3.715
3.72
3.71
3.715
3.705
3.71
3.695
3.695
3.695
3.71
3.695
3.7
3.705
3.7
3.7
3.705
3.715
3.71
3.7
3.705
3.7
3.695
3.695
3.7
3.715
3.715
3.7
3.695
3.685
3.7
3.7
3.69
3.7
3.7
3.715
3.715
3.725
3.695
3.695
3.695
3.695
3.7
3.71
3.71
3.72
3.715
3.695
3.705
3.7
3.715
3.72
3.7
3.685
3.695
3.69
3.7
3.715
3.71
3.7
3.705
3.735
3.755
3.765
3.77
3.77
3.805
3.79
3.805
3.82
3.86
3.845
3.845
3.85
3.87
3.9
3.89
3.855
3.825
3.82
3.81
3.805
3.78
3.74
3.72
3.695
3.685
3.68
3.675
3.675
3.685
3.68
3.685
3.68
3.675
3.68
3.685
3.68
3.695
3.69
3.695
3.695
3.695
3.725
3.78
3.845
3.925
4.06
4.185
4.345
4.505
4.685
4.845
4.965
4.97
4.75
4.54
4.29
4.045
3.91
3.795
3.73
3.72
3.73
3.72
3.705
3.68
3.64
3.61
3.595
3.605
3.595
3.59
3.595
3.59
3.575
3.58
3.59
3.58
3.565
3.575
3.57
3.575
3.565
3.57
3.575
3.565
3.565
3.56
3.56
3.565
3.56
3.57
3.56
3.555
3.56
3.55
3.545
3.54
3.545
3.54
3.535
3.55
3.545
3.54
3.535
3.53
3.53
3.53
3.505
3.51
3.52
3.53
3.53
3.515
3.52
3.525
3.56
3.59
3.605
3.625
3.63
3.665
3.69
3.705
3.74
3.775
3.81
3.84
3.865
3.9
3.91
3.915
3.91
3.91
3.905
3.89
3.875
3.845
3.825
3.825
3.815
3.805
3.795
3.785
3.77
3.75
3.76
3.755
3.755
3.74
3.74
3.74
3.74
3.74
3.745
3.74
3.72
3.72
3.71
3.72
3.73
3.735
3.73
3.73
3.705
3.705
3.705
3.71
3.735
3.74
3.71
3.72
3.695
3.695
3.715
3.71
3.7
3.715
3.715
3.69
3.7
3.7
3.7
3.69
3.7
3.695
3.7
3.69
3.695
3.695
3.705
3.69
3.7
3.695
3.705
3.7
3.715
3.7
3.71
3.7
3.705
3.695
3.695
3.69
3.7
3.695
3.695
3.695
3.695
3.695
3.695
3.7
3.7
3.7
3.7
3.7
3.695
3.7
3.695
3.695
3.68
3.69
3.695
3.705
3.7
3.705
3.705
3.705
3.68
3.7
3.695
3.7
3.715
3.74
3.755
3.755
3.77
3.77
3.775
3.78
3.81
3.845
3.825
3.81
3.82
3.845
3.875
3.89
3.85
3.82
3.815
3.795
3.8
3.78
3.73
3.695
3.69
3.665
3.67
3.66
3.665
3.67
3.665
3.675
3.655
3.65
3.65
3.665
3.665
3.665
3.66
3.675
3.665
3.675
3.695
3.755
3.84
3.915
4.04
4.165
4.315
4.52
4.715
4.895
5.01
4.82
4.565
4.315
4.085
3.88
3.765
3.665
3.625
3.63
3.655
3.65
3.685
3.625
3.615
3.595
3.585
3.57
3.55
3.54
3.54
3.54
3.55
3.53
3.54
3.54
3.545
3.55
3.52
3.53
3.535
3.52
3.52
3.52
3.52
3.525
3.52
3.52
3.505
3.505
3.515
3.515
3.51
3.505
3.485
3.505
3.5
3.52
3.52
3.5
3.5
3.495
3.485
3.495
3.485
3.485
3.505
3.5
3.515
3.515
3.505
3.495
3.53
3.53
3.555
3.555
3.58
3.61
3.625
3.645
3.66
3.685
3.715
3.745
3.78
3.82
3.845
3.865
3.875
3.875
3.88
3.88
3.87
3.85
3.84
3.82
3.805
3.775
3.785
3.775
3.75
3.745
3.735
3.715
3.71
3.715
3.695
3.695
3.695
3.695
3.7
3.7
3.69
3.71
3.7
3.7
3.7
3.7
3.685
3.695
3.685
3.695
3.695
3.695
3.685
3.69
3.675
3.685
3.685
3.69
3.68
3.67
3.67
3.68
3.68
3.675
3.685
3.67
3.675
3.685
3.67
3.675
3.665
3.685
3.685
3.69
3.675
3.605
3.505
3.56
3.615
3.65
3.66
3.675
3.66
3.665
3.66
3.68
3.685
3.695
3.68
3.67
3.675
3.675
3.66
3.675
3.675
3.675
3.665
3.67
3.665
3.665
3.67
3.665
3.675
3.675
3.665
3.675
3.665
3.66
3.67
3.66
3.675
3.67
3.675
3.675
3.68
3.695
3.715
3.745
3.74
3.745
3.745
3.745
3.75
3.775
3.805
3.825
3.83
3.82
3.825
3.85
3.865
3.865
3.84
3.81
3.805
3.785
3.76
3.74
3.7
3.665
3.665
3.65
3.655
3.66
3.65
3.65
3.65
3.655
3.645
3.63
3.65
3.65
3.655
3.645
3.65
3.645
3.655
3.65
3.695
3.755
3.835
3.915
4.06
4.19
4.34
4.505
4.74
4.895
5
4.87
4.61
4.375
4.14
3.915
3.795
3.72
3.655
3.665
3.675
3.66
3.64
3.64
3.6
3.59
3.58
3.565
3.56
3.565
3.55
3.56
3.555
3.535
3.545
3.535
3.52
3.52
3.52
3.53
3.53
3.53
3.53
3.52
3.515
3.52
3.52
3.515
3.51
3.52
3.515
3.5
3.495
3.5
3.505
3.52
3.52
3.515
3.495
3.48
3.475
3.485
3.48
3.48
3.485
3.475
3.48
3.475
3.48
3.5
3.5
3.505
3.535
3.55
3.545
3.555
3.57
3.575
3.61
3.64
3.67
3.7
3.73
3.75
3.785
3.84
3.865
3.88
3.89
3.89
3.87
3.87
3.865
3.865
3.845
3.84
3.82
3.805
3.78
3.775
3.755
3.745
3.74
3.725
3.74
3.72
3.73
3.725
3.715
3.695
3.7
3.695
3.7
3.72
3.71
3.695
3.695
3.7
3.695
3.695
3.695
3.695
3.685
3.685
3.68
3.675
3.665
3.675
3.69
3.695
3.675
3.675
3.665
3.675
3.68
3.685
3.685
3.695
3.685
3.68
3.685
3.675
3.685
3.695
3.695
3.695
3.695
3.695
3.68
3.69
3.68
3.695
3.68
3.69
3.68
3.69
3.685
3.695
3.695
3.675
3.685
3.695
3.7
3.7
3.7
3.7
3.705
3.69
3.695
3.7
3.685
3.695
3.695
3.695
3.705
3.7
3.7
3.71
3.71
3.695
3.7
3.7
3.7
3.695
3.705
3.72
3.72
3.735
3.735
3.74
3.74
3.755
3.78
3.79
3.79
3.795
3.825
3.845
3.845
3.835
3.84
3.865
3.885
3.91
3.875
3.86
3.845
3.845
3.825
3.805
3.78
3.74
3.715
3.715
3.73
3.72
3.705
3.705
3.7
3.7
3.7
3.7
3.695
3.69
3.69
3.695
3.695
3.695
3.695
3.695
3.715
3.75
3.825
3.915
4.005
4.145
4.305
4.455
4.635
4.825
4.965
5.035
4.79
4.54
4.325
4.065
3.86
3.755
3.685
3.665
3.685
3.695
3.695
3.69
3.685
3.67
3.65
3.645
3.625
3.64
3.625
3.61
3.6
3.59
3.595
3.605
3.595
3.6
3.605
3.585
3.585
3.605
3.595
3.6
3.595
3.615
3.595
3.58
3.575
3.59
3.595
3.59
3.595
3.57
3.56
3.57
3.565
3.57
3.56
3.575
3.565
3.55
3.56
3.54
3.55
3.545
3.54
3.565
3.555
3.555
3.56
3.555
3.575
3.58
3.59
3.61
3.615
3.635
3.65
3.675
3.695
3.725
3.76
3.79
3.82
3.86
3.875
3.91
3.91
3.925
3.93
3.925
3.92
3.915
3.9
3.89
3.87
3.86
3.845
3.83
3.84
3.82
3.81
3.79
3.79
3.785
3.785
3.775
3.78
3.755
3.77
3.775
3.775
3.745
3.74
3.74
3.745
3.755
3.74
3.745
3.74
3.74
3.76
3.745
3.74
3.74
3.74
3.745
3.74
3.735
3.74
3.735
3.74
3.77
3.765
3.765
3.74
3.735
3.735
3.74
3.74
3.74
3.74
3.75
3.755
3.745
3.74
3.73
3.735
3.735
3.74
3.74
3.74
3.735
3.74
3.74
3.745
3.74
3.74
3.735
3.74
3.72
3.735
3.73
3.74
3.735
3.74
3.745
3.755
3.755
3.755
3.755
3.745
3.75
3.74
3.735
3.73
3.72
3.735
3.74
3.74
3.715
3.715
3.725
3.72
3.73
3.72
3.72
3.71
3.74
3.77
3.79
3.78
3.79
3.815
3.81
3.82
3.86
3.875
3.87
3.87
3.875
3.885
3.915
3.94
3.915
3.885
3.86
3.845
3.845
3.815
3.775
3.77
3.745
3.735
3.735
3.725
3.715
3.715
3.715
3.695
3.72
3.715
3.705
3.7
3.695
3.695
3.715
3.735
3.74
3.74
3.75
3.805
3.875
3.955
4.06
4.2
4.365
4.53
4.705
4.88
4.995
4.99
4.74
4.49
4.26
4.01
3.89
3.78
3.74
3.73
3.745
3.74
3.735
3.7
3.695
3.64
3.645
3.635
3.63
3.635
3.64
3.645
3.615
3.62
3.615
3.615
3.605
3.61
3.61
3.62
3.615
3.61
3.61
3.605
3.61
3.615
3.605
3.6
3.585
3.585
3.61
3.595
3.61
3.595
3.61
3.6
3.595
3.58
3.57
3.54
3.56
3.56
3.555
3.555
3.56
3.56
3.565
3.555
3.565
3.56
3.565
3.575
3.585
3.59
3.59
3.61
3.625
3.65
3.665
3.685
3.72
3.76
3.78
3.805
3.84
3.855
3.88
3.91
3.945
3.95
3.945
3.95
3.93
3.915
3.905
3.915
3.9
3.875
3.87
3.845
3.835
3.825
3.825
3.825
3.81
3.805
3.805
3.79
3.775
3.78
3.78
3.77
3.775
3.775
3.775
3.76
3.745
3.745
3.745
3.74
3.735
3.74
3.735
3.74
3.74
3.745
3.745
3.735
3.74
3.74
3.725
3.73
3.73
3.735
3.74
3.74
3.73
3.73
3.735
3.74
3.735
3.74
3.735
3.735
3.735
3.735
3.725
3.72
3.73
3.735
3.745
3.74
3.745
3.735
3.735
3.735
3.725
3.71
3.72
3.735
3.72
3.715
3.72
3.73
3.72
3.74
3.74
3.735
3.73
3.73
3.73
3.72
3.715
3.72
3.735
3.725
3.745
3.73
3.735
3.705
3.715
3.7
3.725
3.735
3.73
3.735
3.73
3.725
3.735
3.755
3.77
3.775
3.785
3.795
3.825
3.81
3.82
3.85
3.85
3.85
3.86
3.87
3.875
3.9
3.89
3.88
3.87
3.86
3.825
3.825
3.8
3.785
3.745
3.735
3.725
3.74
3.735
3.73
3.735
3.72
3.715
3.7
3.7
3.72
3.715
3.71
3.71
3.705
3.695
3.7
3.725
3.75
3.82
3.895
4
4.135
4.25
4.41
4.6
4.775
4.915
5.04
4.865
4.62
4.39
4.16
3.935
3.825
3.74
3.7
3.715
3.735
3.72
3.695
3.66
3.64
3.64
3.62
3.62
3.605
3.61
3.61
3.595
3.595
3.585
3.595
3.58
3.59
3.58
3.585
3.58
3.59
3.595
3.58
3.59
3.6
3.585
3.58
3.58
3.575
3.57
3.56
3.57
3.56
3.57
3.565
3.575
3.57
3.56
3.56
3.555
3.56
3.555
3.565
3.555
3.555
3.555
3.555
3.555
3.555
3.555
3.56
3.565
3.575
3.585
3.61
3.605
3.625
3.645
3.68
3.705
3.74
3.775
3.805
3.84
3.86
3.89
3.91
3.925
3.93
3.95
3.94
3.935
3.915
3.93
3.91
3.885
3.865
3.865
3.845
3.83
3.825
3.825
3.815
3.795
3.805
3.795
3.795
3.795
3.785
3.785
3.76
3.755
3.755
3.755
3.755
3.77
3.755
3.755
3.765
3.76
3.755
3.755
3.74
3.74
3.74
3.745
3.685
3.735
3.72
3.74
3.74
3.74
3.745
3.745
3.74
3.735
3.74
3.73
3.74
3.735
3.74
3.74
3.74
3.74
3.74
3.745
3.74
3.74
3.72
3.735
3.735
3.74
3.755
3.775
3.765
3.765
3.74
3.74
3.725
3.74
3.72
3.73
3.74
3.74
3.755
3.76
3.76
3.74
3.745
3.755
3.745
3.74
3.74
3.74
3.745
3.75
3.74
3.745
3.755
3.76
3.74
3.745
3.745
3.745
3.74
3.74
3.74
3.76
3.79
3.785
3.805
3.81
3.815
3.81
3.83
3.845
3.865
3.865
3.87
3.89
3.89
3.915
3.925
3.91
3.885
3.875
3.865
3.83
3.81
3.785
3.77
3.745
3.74
3.745
3.74
3.735
3.735
3.735
3.72
3.725
3.72
3.725
3.715
3.72
3.72
3.73
3.725
3.735
3.74
3.765
3.835
3.895
4.005
4.13
4.255
4.415
4.6
4.79
4.95
4.995
4.775
4.525
4.3
4.075
3.86
3.765
3.685
3.665
3.67
3.685
3.68
3.69
3.67
3.66
3.645
3.63
3.62
3.615
3.625
3.605
3.595
3.59
3.605
3.595
3.595
3.59
3.6
3.6
3.585
3.59
3.59
3.57
3.575
3.585
3.595
3.58
3.575
3.575
3.59
3.59
3.57
3.58
3.57
3.565
3.57
3.565
3.56
3.555
3.555
3.55
3.56
3.565
3.57
3.56
3.56
3.555
3.56
3.555
3.565
3.565
3.575
3.575
3.57
3.59
3.595
3.61
3.63
3.665
3.675
3.715
3.75
3.79
3.805
3.84
3.865
3.895
3.9
3.91
3.91
3.93
3.915
3.91
3.9
3.895
3.865
3.86
3.845
3.835
3.82
3.81
3.805
3.795
3.775
3.78
3.77
3.76
3.755
3.755
3.77
3.765
3.77
3.745
3.74
3.745
3.745
3.765
3.755
3.75
3.75
3.755
3.74
3.77
3.77
3.745
3.745
3.745
3.75
3.74
3.74
3.74
3.74
3.74
3.75
3.745
3.74
3.745
3.735
3.735
3.74
3.735
3.725
3.735
3.735
3.74
3.74
3.73
3.735
3.73
3.735
3.735
3.73
3.73
3.735
3.735
3.715
3.73
3.74
3.74
3.74
3.745
3.74
3.74
3.735
3.725
3.735
3.73
3.73
3.735
3.74
3.735
3.735
3.735
3.735
3.74
3.76
3.755
3.74
3.735
3.735
3.745
3.745
3.74
3.74
3.75
3.74
3.76
3.765
3.76
3.78
3.785
3.79
4.005
3.955
3.91
3.895
3.89
3.905
3.89
3.875
3.88
3.9
3.93
3.915
3.9
3.885
3.875
3.845
3.83
3.815
3.78
3.74
3.745
3.735
3.7
3.7
3.705
3.72
3.705
3.715
3.71
3.715
3.715
3.715
3.715
3.715
3.705
3.715
3.715
3.735
3.755
3.825
3.915
4.005
4.13
4.275
4.43
4.61
4.79
4.955
5.03
4.83
4.615
4.395
4.145
3.93
3.84
3.755
3.72
3.74
3.755
3.72
3.7
3.685
3.67
3.66
3.645
3.64
3.615
3.6
3.59
3.59
3.58
3.575
3.59
3.6
3.6
3.595
3.585
3.59
3.585
3.595
3.58
3.57
3.565
3.555
3.57
3.565
3.565
3.56
3.565
3.565
3.56
3.57
3.565
3.56
3.535
3.53
3.54
3.53
3.53
3.52
3.515
3.52
3.525
3.52
3.535
3.54
3.55
3.54
3.545
3.545
3.54
3.565
3.555
3.57
3.595
3.61
3.65
3.655
3.69
3.73
3.745
3.78
3.815
3.855
3.88
3.9
3.905
3.91
3.915
3.91
3.91
3.9
3.87
3.85
3.845
3.825
3.825
3.825
3.79
3.785
3.775
3.78
3.77
3.74
3.74
3.735
3.735
3.72
3.73
3.715
3.71
3.715
3.72
3.725
3.72
3.71
3.72
3.715
3.7
3.7
3.73
3.72
3.71
3.72
3.72
3.72
3.71
3.715
3.7
3.7
3.695
3.715
3.71
3.705
3.7
3.695
3.71
3.71
3.71
3.705
3.705
3.72
3.7
3.695
3.7
3.685
3.7
3.685
3.685
3.685
3.685
3.67
3.695
3.695
3.695
3.685
3.685
3.69
3.695
3.695
3.715
3.71
3.695
3.695
3.705
3.705
3.7
3.7
3.7
3.7
3.695
3.685
3.695
3.695
3.685
3.695
3.7
3.715
3.72
3.715
3.71
3.7
3.7
3.7
3.715
3.72
3.74
3.745
3.775
3.785
3.78
3.795
3.785
3.8
3.825
3.845
3.855
3.85
3.845
3.88
3.915
3.9
3.875
3.845
3.82
3.825
3.825
3.795
3.755
3.73
3.71
3.705
3.71
3.72
3.715
3.695
3.7
3.7
3.7
3.705
3.715
3.7
3.69
3.695
3.705
3.715
3.72
3.715
3.755
3.825
3.91
4
4.13
4.26
4.42
4.635
4.825
4.965
5
4.74
4.53
4.285
4.04
3.86
3.745
3.665
3.65
3.665
3.685
3.695
3.67
3.64
3.63
3.605
3.61
3.595
3.6
3.605
3.595
3.54
3.56
3.55
3.57
3.585
3.57
3.595
3.58
3.585
3.585
3.585
3.585
3.565
3.555
3.56
3.555
3.56
3.565
3.565
3.565
3.565
3.56
3.57
3.565
3.56
3.56
3.555
3.535
3.53
3.53
3.53
3.525
3.53
3.55
3.555
3.535
3.555
3.54
3.535
3.565
3.55
3.585
3.59
3.615
3.625
3.65
3.65
3.67
3.695
3.715
3.745
3.775
3.81
3.84
3.855
3.875
3.9
3.91
3.91
3.91
3.9
3.905
3.88
3.86
3.845
3.835
3.83
3.825
3.825
3.79
3.78
3.775
3.77
3.77
3.775
3.755
3.74
3.75
3.745
3.74
3.74
3.735
3.725
3.72
3.7
3.715
3.72
3.725
3.74
3.725
3.72
3.72
3.72
3.73
3.74
3.725
3.715
3.715
3.715
3.71
3.7
3.71
3.705
3.7
3.705
3.71
3.725
3.715
3.705
3.715
3.7
3.71
3.74
3.73
3.715
3.695
3.705
3.72
3.705
3.7
3.7
3.7
3.695
3.69
3.695
3.695
3.685
3.69
3.7
3.7
3.715
3.715
3.705
3.7
3.695
3.695
3.7
3.695
3.71
3.7
3.695
3.705
3.695
3.71
3.7
3.715
3.705
3.715
3.695
3.695
3.685
3.695
3.695
3.7
3.715
3.725
3.74
3.745
3.77
3.775
3.785
3.79
3.805
3.825
3.84
3.845
3.845
3.86
3.875
3.86
3.855
3.835
3.825
3.825
3.785
3.77
3.73
3.72
3.69
3.685
3.68
3.695
3.675
3.67
3.67
3.675
3.665
3.67
3.67
3.675
3.67
3.68
3.67
3.655
3.66
3.68
3.73
3.795
3.88
3.955
4.095
4.23
4.425
4.61
4.8
4.935
4.995
4.75
4.52
4.275
4.03
3.86
3.74
3.665
3.655
3.66
3.665
3.67
3.645
3.625
3.6
3.58
3.575
3.56
3.57
3.57
3.565
3.55
3.54
3.555
3.56
3.56
3.535
3.555
3.55
3.545
3.565
3.56
3.54
3.535
3.54
3.545
3.53
3.545
3.54
3.54
3.54
3.54
3.54
3.515
3.505
3.51
3.5
3.51
3.52
3.52
3.53
3.52
3.515
3.515
3.505
3.505
3.515
3.515
3.52
3.515
3.535
3.53
3.53
3.55
3.565
3.585
3.6
3.625
3.65
3.67
3.675
3.71
3.745
3.785
3.825
3.845
3.865
3.875
3.875
3.89
3.89
3.88
3.865
3.865
3.845
3.825
3.81
3.8
3.78
3.775
3.77
3.765
3.76
3.74
3.74
3.74
3.7
3.695
3.72
3.73
3.73
3.72
3.71
3.71
3.71
3.7
3.7
3.7
3.695
3.7
3.7
3.7
3.685
3.69
3.695
3.675
3.695
3.695
3.685
3.685
3.685
3.695
3.7
3.695
3.695
3.685
3.675
3.675
3.685
3.665
3.675
3.685
3.675
3.68
3.67
3.675
3.665
3.68
3.675
3.695
3.705
3.7
3.695
3.69
3.695
3.69
3.685
3.68
3.68
3.665
3.665
3.675
3.67
3.67
3.67
3.675
3.69
3.685
3.695
3.695
3.695
3.685
3.685
3.675
3.68
3.685
3.695
3.695
3.695
3.675
3.67
3.66
3.655
3.685
3.7
3.73
3.74
3.75
3.755
3.765
3.765
3.76
3.785
3.825
3.82
3.82
3.81
3.82
3.86
3.87
3.845
3.82
3.805
3.795
3.78
3.765
3.74
3.695
3.66
3.655
3.66
3.665
3.665
3.69
3.68
3.65
3.65
3.67
3.655
3.66
3.67
3.665
3.67
3.65
3.665
3.675
3.7
3.775
3.86
3.95
4.065
4.215
4.38
4.545
4.745
4.91
4.995
4.79
4.585
4.345
4.085
3.875
3.76
3.675
3.665
3.665
3.695
3.675
3.65
3.63
3.595
3.595
3.565
3.56
3.55
3.56
3.55
3.55
3.54
3.525
3.54
3.55
3.55
3.56
3.555
3.54
3.545
3.53
3.54
3.545
3.535
3.555
3.535
3.52
3.52
3.515
3.53
3.52
3.515
3.525
3.525
3.525
3.505
3.51
3.5
3.485
3.49
3.5
3.5
3.5
3.485
3.505
3.52
3.515
3.52
3.52
3.52
3.525
3.53
3.54
3.545
3.55
3.595
3.59
3.615
3.625
3.66
3.675
3.715
3.765
3.78
3.82
3.825
3.84
3.865
3.88
3.88
3.88
3.87
3.85
3.835
3.825
3.82
3.81
3.79
3.78
3.775
3.76
3.755
3.74
3.74
3.72
3.735
3.735
3.735
3.725
3.7
3.695
3.71
3.695
3.695
3.7
3.71
3.695
3.7
3.7
3.695
3.7
3.7
3.71
3.705
3.695
3.68
3.685
3.665
3.68
3.695
3.695
3.715
3.69
3.675
3.695
3.685
3.7
3.7
3.7
3.695
3.695
3.69
3.685
3.685
3.695
3.685
3.685
3.68
3.68
3.67
3.675
3.665
3.685
3.68
3.695
3.7
3.68
3.68
3.695
3.685
3.695
3.695
3.71
3.715
3.71
3.7
3.695
3.69
3.7
3.7
3.7
3.695
3.69
3.685
3.695
3.695
3.715
3.645
3.7
3.695
3.695
3.685
3.695
3.7
3.725
3.74
3.745
3.755
3.775
3.775
3.775
3.79
3.82
3.825
3.82
3.82
3.84
3.87
3.87
3.845
3.83
3.825
3.81
3.8
3.775
3.755
3.73
3.695
3.68
3.685
3.675
3.685
3.685
3.685
3.665
3.68
3.675
3.685
3.675
3.68
3.665
3.665
3.675
3.68
3.695
3.735
3.81
3.875
3.965
4.09
4.245
4.385
4.575
4.78
4.94
5.005
4.79
4.52
4.29
4.045
3.85
3.745
3.675
3.645
3.645
3.65
3.65
3.635
3.625
3.625
3.61
3.585
3.58
3.57
3.565
3.565
3.565
3.565
3.565
3.555
3.56
3.555
3.565
3.56
3.565
3.56
3.55
3.56
3.555
3.56
3.545
3.525
3.53
3.52
3.525
3.54
3.535
3.545
3.54
3.54
3.55
3.54
3.535
3.535
3.52
3.51
3.515
3.5
3.505
3.52
3.52
3.52
3.515
3.505
3.51
3.52
3.525
3.535
3.57
3.56
3.58
3.605
3.62
3.64
3.665
3.695
3.735
3.74
3.755
3.78
3.81
3.835
3.87
3.875
3.875
3.875
3.875
3.86
3.86
3.83
3.825
3.82
3.785
3.78
3.785
3.775
3.745
3.74
3.72
3.715
3.72
3.725
3.71
3.705
3.7
3.695
3.7
3.685
3.7
3.7
3.695
3.695
3.695
3.695
3.695
3.69
3.695
3.685
3.685
3.67
3.685
3.7
3.7
3.695
3.7
3.69
3.675
3.66
3.67
3.66
3.65
3.665
3.655
3.665
3.675
3.67
3.655
3.675
3.665
3.66
3.675
3.67
3.675
3.675
3.67
3.66
3.665
3.665
3.665
3.66
3.66
3.665
3.665
3.65
3.665
3.65
3.65
3.65
3.66
3.63
3.645
3.655
3.66
3.66
3.66
3.66
3.675
3.67
3.665
3.695
3.675
3.675
3.67
3.68
3.675
3.665
3.67
3.665
3.67
3.665
3.695
3.72
3.735
3.735
3.745
3.74
3.74
3.775
3.79
3.81
3.82
3.805
3.81
3.845
3.865
3.86
3.83
3.81
3.795
3.79
3.775
3.755
3.715
3.69
3.685
3.66
3.675
3.68
3.64
3.65
3.66
3.66
3.66
3.66
3.665
3.65
3.655
3.66
3.665
3.655
3.66
3.675
3.735
3.8
3.9
3.98
4.105
4.25
4.45
4.62
4.825
4.955
4.95
4.74
4.52
4.28
4.02
3.89
3.78
3.72
3.695
3.705
3.695
3.67
3.65
3.62
3.6
3.575
3.57
3.565
3.55
3.55
3.555
3.53
3.66
3.775
3.71
3.66
3.62
3.6
3.585
3.575
3.56
3.565
3.55
3.535
3.55
3.53
3.52
3.52
3.52
3.52
3.515
3.495
3.505
3.52
3.51
3.505
3.51
3.48
3.505
3.5
3.51
3.505
3.495
3.5
3.52
3.505
3.51
3.505
3.505
3.51
3.52
3.51
3.525
3.515
3.54
3.56
3.595
3.605
3.63
3.655
3.675
3.705
3.755
3.79
3.82
3.85
3.875
3.88
3.885
3.88
3.89
3.89
3.885
3.865
3.845
3.82
3.805
3.805
3.8
3.79
3.78
3.765
3.755
3.735
3.71
3.72
3.715
3.71
3.715
3.705
3.715
3.71
3.7
3.685
3.7
3.695
3.695
3.695
3.695
3.695
3.695
3.675
3.685
3.685
3.685
3.67
3.685
3.68
3.68
3.665
3.685
3.695
3.69
3.685
3.675
3.69
3.685
3.675
3.675
3.665
3.66
3.665
3.685
3.69
3.665
3.665
3.665
3.665
3.67
3.68
3.675
3.68
3.66
3.655
3.665
3.67
3.675
3.68
3.69
3.68
3.685
3.675
3.665
3.665
3.665
3.675
3.685
3.68
3.685
3.685
3.675
3.675
3.675
3.665
3.67
3.665
3.695
3.685
3.695
3.685
3.69
3.695
3.7
3.71
3.735
3.73
3.73
3.735
3.75
3.77
3.77
3.795
3.81
3.81
3.82
3.82
3.845
3.86
3.865
3.845
3.825
3.825
3.82
3.805
3.77
3.735
3.695
3.69
3.665
3.66
3.665
3.67
3.67
3.695
3.675
3.66
3.655
3.67
3.665
3.655
3.65
3.66
3.665
3.66
3.675
3.74
3.8
3.87
3.985
4.1
4.25
4.415
4.585
4.82
4.95
4.935
4.665
4.42
4.175
3.95
3.785
3.695
3.625
3.61
3.62
3.63
3.625
3.635
3.64
3.595
3.59
3.585
3.575
3.575
3.56
3.555
3.56
3.54
3.555
3.55
3.555
3.54
3.555
3.565
3.555
3.545
3.545
3.545
3.535
3.54
3.545
3.54
3.535
3.555
3.55
3.54
3.53
3.53
3.53
3.52
3.515
3.515
3.505
3.515
3.515
3.52
3.52
3.495
3.52
3.525
3.515
3.52
3.525
3.52
3.53
3.535
3.55
3.555
3.57
3.585
3.595
3.61
3.64
3.665
3.68
3.705
3.745
3.775
3.785
3.81
3.825
3.855
3.88
3.87
3.865
3.87
3.865
3.865
3.86
3.85
3.84
3.815
3.79
3.775
3.77
3.755
3.755
3.74
3.735
3.44
3.505
3.6
3.63
3.665
3.69
3.695
3.695
3.685
3.7
3.7
3.7
3.715
3.71
3.705
3.71
3.71
3.7
3.695
3.695
3.695
3.7
3.69
3.69
3.685
3.685
3.69
3.695
3.685
3.695
3.695
3.69
3.715
3.685
3.68
3.68
3.69
3.675
3.7
3.695
3.72
3.695
3.74
3.685
3.67
3.685
3.685
3.675
3.68
3.695
3.685
3.695
3.68
3.685
3.67
3.67
3.67
3.69
3.67
3.67
3.66
3.675
3.68
3.695
3.68
3.69
3.665
3.675
3.685
3.695
3.685
3.68
3.68
3.68
3.675
3.675
3.675
3.685
3.685
3.695
3.715
3.73
3.735
3.74
3.74
3.755
3.77
3.785
3.81
3.81
3.795
3.815
3.81
3.845
3.865
3.845
3.81
3.79
3.785
3.775
3.74
3.72
3.685
3.66
3.65
3.67
3.665
3.66
3.65
3.65
3.65
3.65
3.65
3.645
3.655
3.645
3.65
3.655
3.655
3.65
3.675
3.695
3.755
3.825
3.925
4.03
4.17
4.3
4.485
4.695
4.875
5.005
4.935
4.665
4.425
4.17
3.915
3.8
3.705
3.665
3.67
3.695
3.69
3.66
3.61
3.6
3.585
3.57
3.56
3.54
3.53
3.53
3.535
3.55
3.55
3.54
3.54
3.54
3.55
3.535
3.52
3.52
3.495
3.515
3.52
3.52
3.54
3.53
3.52
3.515
3.525
3.52
3.52
3.5
3.495
3.485
3.505
3.515
3.495
3.475
3.49
3.475
3.495
3.48
3.485
3.485
3.48
3.48
3.49
3.485
3.485
3.49
3.49
3.505
3.51
3.515
3.52
3.54
3.56
3.57
3.6
3.625
3.665
3.695
3.735
3.775
3.79
3.81
3.825
3.86
3.87
3.865
3.86
3.845
3.84
3.82
3.81
3.8
3.79
3.79
3.77
3.755
3.745
3.74
3.72
3.73
3.735
3.73
3.72
3.715
3.71
3.7
3.695
3.7
3.685
3.69
3.685
3.685
3.665
3.675
3.665
3.665
3.67
3.67
3.665
3.675
3.675
3.675
3.67
3.675
3.68
3.685
3.665
3.675
3.665
3.67
3.665
3.665
3.65
3.65
3.65
3.665
3.66
3.66
3.67
3.685
3.675
3.685
3.665
3.67
3.67
3.68
3.685
3.675
3.67
3.665
3.665
3.66
3.665
3.66
3.665
3.655
3.655
3.665
3.67
3.655
3.66
3.66
3.665
3.675
3.665
3.66
3.67
3.66
3.675
3.66
3.66
3.66
3.625
3.68
3.68
3.675
3.695
3.675
3.695
3.695
3.72
3.725
3.73
3.75
3.74
3.745
3.76
3.78
3.81
3.81
3.8
3.8
3.825
3.845
3.86
3.845
3.815
3.805
3.79
3.785
3.755
3.735
3.705
3.685
3.665
3.65
3.665
3.665
3.66
3.65
3.65
3.65
3.65
3.65
3.655
3.655
3.65
3.66
3.665
3.655
3.665
3.695
3.755
3.835
3.92
4.055
4.185
4.345
4.525
4.72
4.895
5.005
4.865
4.585
4.35
4.125
3.89
3.77
3.675
3.645
3.635
3.645
3.65
3.64
3.63
3.61
3.605
3.595
3.555
3.555
3.545
3.545
3.55
3.555
3.555
3.54
3.55
3.535
3.52
3.52
3.51
3.53
3.54
3.54
3.535
3.53
3.535
3.53
3.535
3.54
3.53
3.53
3.52
3.5
3.5
3.49
3.505
3.5
3.495
3.505
3.51
3.5
3.5
3.48
3.485
3.5
3.51
3.52
3.52
3.51
3.5
3.515
3.515
3.52
3.52
3.53
3.545
3.56
3.6
3.61
3.64
3.665
3.7
3.74
3.77
3.775
3.81
3.835
3.86
3.855
3.865
3.865
3.86
3.85
3.85
3.84
3.82
3.795
3.785
3.765
3.755
3.74
3.74
3.735
3.72
3.71
3.715
3.715
3.695
3.7
3.695
3.69
3.695
3.705
3.695
3.695
3.7
3.695
3.695
3.695
3.69
3.685
3.685
3.68
3.68
3.68
3.685
3.685
3.68
3.68
3.685
3.695
3.675
3.675
3.655
3.665
3.665
3.665
3.665
3.655
3.66
3.66
3.66
3.665
3.665
3.67
3.665
3.655
3.66
3.665
3.665
3.65
3.665
3.66
3.665
3.675
3.65
3.64
3.65
3.65
3.65
3.65
3.66
3.66
3.66
3.66
3.66
3.65
3.665
3.67
3.665
3.66
3.66
3.66
3.66
3.66
3.675
3.67
3.665
3.665
3.67
3.66
3.665
3.67
3.685
3.705
3.715
3.74
3.745
3.755
3.755
3.75
3.77
3.8
3.81
3.8
3.78
3.79
3.81
3.86
3.86
3.825
3.805
3.8
3.78
3.755
3.74
3.715
3.69
3.67
3.66
3.66
3.66
3.665
3.66
3.66
3.64
3.63
3.645
3.64
3.64
3.645
3.65
3.645
3.65
3.66
3.685
3.73
3.795
3.88
4.025
4.125
4.275
4.455
4.64
4.86
4.995
4.965
4.685
4.45
4.205
3.96
3.805
3.74
3.65
3.65
3.665
3.665
3.65
3.62
3.59
3.57
3.565
3.565
3.52
3.825
3.705
3.65
3.625
3.595
3.575
3.555
3.53
3.54
3.54
3.54
3.535
3.52
3.515
3.515
3.52
3.54
3.52
3.515
3.515
3.51
3.495
3.485
3.495
3.5
3.485
3.49
3.505
3.495
3.49
3.49
3.485
3.485
3.5
3.485
3.485
3.47
3.48
3.485
3.48
3.48
3.5
3.5
3.505
3.52
3.525
3.56
3.57
3.58
3.61
3.63
3.645
3.695
3.72
3.74
3.775
3.795
3.815
3.845
3.86
3.87
3.88
3.86
3.86
3.845
3.845
3.81
3.81
3.81
3.79
3.775
3.755
3.745
3.735
3.715
3.705
3.71
3.7
3.695
3.685
3.685
3.675
3.685
3.685
3.7
3.695
3.695
3.685
3.685
3.675
3.66
3.65
3.655
3.665
3.675
3.665
3.68
3.67
3.665
3.665
3.665
3.66
3.65
3.65
3.65
3.655
3.665
3.665
3.665
3.645
3.655
3.63
3.65
3.625
3.65
3.645
3.67
3.675
3.675
3.665
3.665
3.65
3.65
3.65
3.655
3.66
3.65
3.65
3.645
3.65
3.65
3.66
3.665
3.65
3.66
3.65
3.645
3.655
3.645
3.66
3.665
3.68
3.67
3.675
3.665
3.67
3.65
3.665
3.675
3.665
3.66
3.655
3.65
3.65
3.665
3.675
3.695
3.7
3.71
3.72
3.725
3.735
3.745
3.755
3.775
3.805
3.805
3.8
3.805
3.83
3.86
3.84
3.82
3.8
3.775
3.77
3.765
3.745
3.71
3.665
3.655
3.655
3.645
3.65
3.65
3.645
3.65
3.645
3.645
3.64
3.64
3.645
3.655
3.645
3.63
3.63
3.65
3.66
3.71
3.775
3.86
3.96
4.095
4.26
4.445
4.61
4.81
4.955
4.955
4.71
4.505
4.24
3.98
3.815
3.71
3.635
3.63
3.645
3.66
3.635
3.63
3.605
3.59
3.565
3.545
3.55
3.535
3.535
3.55
3.54
3.53
3.52
3.495
3.53
3.52
3.54
3.54
3.53
3.52
3.52
3.515
3.525
3.52
3.52
3.52
3.525
3.535
3.52
3.52
3.515
3.52
3.52
3.52
3.5
3.495
3.495
3.5
3.49
3.475
3.48
3.485
3.48
3.485
3.49
3.495
3.5
3.51
3.51
3.52
3.505
3.52
3.53
3.54
3.565
3.58
3.61
3.64
3.665
3.685
3.715
3.745
3.77
3.81
3.845
3.855
3.88
3.875
3.88
3.885
3.88
3.86
3.86
3.83
3.82
3.81
3.795
3.775
3.77
3.675
3.675
3.695
3.695
3.705
3.72
3.71
3.715
3.715
3.715
3.73
3.73
3.715
3.7
3.7
3.7
3.71
3.715
3.695
3.7
3.675
3.685
3.69
3.7
3.695
3.695
3.69
3.695
3.695
3.7
3.69
3.69
3.685
3.695
3.69
3.695
3.69
3.695
3.69
3.68
3.675
3.685
3.685
3.675
3.67
3.685
3.7
3.69
3.685
3.695
3.695
3.69
3.695
3.685
3.685
3.695
3.685
3.695
3.695
3.69
3.68
3.685
3.68
3.7
3.695
3.685
3.685
3.67
3.66
3.665
3.665
3.68
3.695
3.675
3.67
3.67
3.675
3.675
3.695
3.695
3.695
3.69
3.695
3.7
3.7
3.72
3.725
3.735
3.74
3.755
3.775
3.775
3.805
3.82
3.81
3.82
3.825
3.845
3.865
3.86
3.835
3.825
3.8
3.785
3.75
3.73
3.7
3.68
3.665
3.665
3.65
3.65
3.645
3.65
3.64
3.645
3.65
3.65
3.65
3.635
3.645
3.635
3.65
3.65
3.66
3.67
3.725
3.815
3.885
4.015
4.145
4.305
4.48
4.665
4.855
4.99
4.92
4.635
4.39
4.16
3.93
3.79
3.715
3.645
3.625
3.645
3.655
3.635
3.63
3.605
3.59
3.575
3.565
3.57
3.55
3.545
3.545
3.54
3.545
3.53
3.525
3.52
3.52
3.52
3.525
3.53
3.52
3.52
3.51
3.52
3.51
3.52
3.52
3.515
3.51
3.485
3.505
3.49
3.485
3.5
3.515
3.5
3.505
3.495
3.5
3.49
3.485
3.475
3.48
3.47
3.475
3.475
3.46
3.48
3.48
3.5
3.505
3.5
3.505
3.515
3.52
3.545
3.565
3.595
3.61
3.635
3.675
3.695
3.74
3.745
3.78
3.81
3.83
3.86
3.87
3.865
3.855
3.845
3.86
3.85
3.825
3.81
3.785
3.775
3.755
3.755
3.745
3.74
3.735
3.735
3.73
3.71
3.705
3.695
3.695
3.69
3.69
3.675
3.675
3.665
3.68
3.68
3.685
3.675
3.685
3.67
3.68
3.68
3.67
3.675
3.675
3.665
3.675
3.665
3.66
3.675
3.685
3.675
3.685
3.68
3.67
3.675
3.675
3.67
3.675
3.67
3.675
3.675
3.67
3.665
3.675
3.635
3.66
3.665
3.65
3.65
3.645
3.65
3.65
3.66
3.65
3.665
3.675
3.66
3.665
3.665
3.66
3.665
3.665
3.665
3.66
3.68
3.685
3.7
3.68
3.685
3.67
3.665
3.665
3.68
3.685
3.665
3.625
3.65
3.66
3.675
3.675
3.675
3.68
3.685
3.685
3.705
3.725
3.72
3.73
3.74
3.75
3.755
3.775
3.8
3.805
3.805
3.79
3.81
3.83
3.875
3.855
3.825
3.805
3.79
3.77
3.745
3.72
3.705
3.695
3.685
3.665
3.665
3.665
3.665
3.65
3.65
3.645
3.635
3.64
3.65
3.66
3.66
3.66
3.665
3.675
3.665
3.685
3.72
3.805
3.88
4.005
4.15
4.295
4.455
4.595
4.795
4.95
5.02
4.8
4.575
4.32
4.075
3.865
3.765
3.685
3.65
3.68
3.695
3.665
3.635
3.61
3.595
3.59
3.565
3.56
3.565
3.56
3.565
3.545
3.54
3.54
3.54
3.55
3.54
3.545
3.535
3.53
3.52
3.52
3.51
3.52
3.51
3.52
3.53
3.52
3.515
3.505
3.5
3.52
3.52
3.53
3.525
3.52
3.5
3.505
3.495
3.505
3.485
3.48
3.485
3.49
3.475
3.485
3.48
3.495
3.475
3.475
3.495
3.5
3.535
3.55
3.55
3.56
3.565
3.595
3.615
3.655
3.68
3.7
3.73
3.765
3.8
3.82
3.84
3.845
3.845
3.87
3.87
3.87
3.86
3.86
3.835
3.82
3.785
3.79
3.78
3.775
3.755
3.745
3.74
3.74
3.74
3.725
3.73
3.71
3.705
3.7
3.715
3.715
3.715
3.7
3.695
3.69
3.685
3.675
3.68
3.68
3.675
3.69
3.685
3.68
3.685
3.675
3.67
3.695
3.695
3.675
3.675
3.675
3.67
3.675
3.68
3.675
3.675
3.675
3.68
3.675
3.65
3.66
3.67
3.665
3.66
3.675
3.675
3.67
3.665
3.68
3.675
3.665
3.66
3.675
3.665
3.675
3.665
3.665
3.665
3.675
3.665
3.675
3.665
3.665
3.69
3.675
3.65
3.66
3.685
3.67
3.68
3.685
3.68
3.695
3.68
3.695
3.68
3.675
3.66
3.675
3.665
3.68
3.695
3.7
3.7
3.72
3.73
3.735
3.745
3.755
3.76
3.77
3.79
3.82
3.83
3.825
3.82
3.825
3.855
3.88
3.86
3.825
3.805
3.78
3.77
3.77
3.745
3.705
3.685
3.665
3.66
3.66
3.66
3.65
3.65
3.665
3.65
3.66
3.66
3.665
3.665
3.67
3.675
3.675
3.66
3.665
3.69
3.77
3.845
3.955
4.045
4.18
4.345
4.545
4.775
4.93
5
4.79
4.535
4.305
4.075
3.845
3.735
3.65
3.625
3.625
3.595
3.565
3.595
3.595
3.595
3.56
3.575
3.57
3.565
3.56
3.55
3.56
3.555
3.55
3.525
3.52
3.535
3.555
3.56
3.565
3.55
3.54
3.54
3.555
3.565
3.555
3.535
3.525
3.52
3.515
3.505
3.515
3.515
3.52
3.525
3.525
3.525
3.52
3.51
3.5
3.505
3.49
3.505
3.505
3.505
3.51
3.515
3.505
3.515
3.52
3.535
3.53
3.52
3.535
3.545
3.575
3.59
3.61
3.63
3.655
3.68
3.72
3.74
3.785
3.81
3.84
3.86
3.875
3.9
3.905
3.89
3.875
3.875
3.87
3.85
3.825
3.81
3.79
3.775
3.745
3.745
3.72
3.72
3.72
3.725
3.72
3.715
3.705
3.725
3.7
3.7
3.7
3.7
3.695
3.705
3.685
3.695
3.695
3.695
3.695
3.695
3.68
3.695
3.68
3.695
3.685
3.7
3.685
3.68
3.67
3.67
3.675
3.695
3.67
3.675
3.675
3.695
3.68
3.665
3.665
3.675
3.685
3.685
3.675
3.665
3.665
3.665
3.665
3.67
3.67
3.665
3.66
3.67
3.66
3.665
3.655
3.68
3.67
3.675
3.665
3.67
3.665
3.67
3.675
3.68
3.665
3.665
3.665
3.665
3.66
3.665
3.655
3.67
3.655
3.665
3.65
3.66
3.65
3.65
3.655
3.66
3.65
3.665
3.665
3.68
3.66
3.685
3.695
3.72
3.735
3.74
3.755
3.755
3.78
3.79
3.81
3.8
3.795
3.81
3.825
3.855
3.845
3.81
3.8
3.78
3.77
3.755
3.745
3.715
3.68
3.66
3.65
3.655
3.65
3.645
3.65
3.64
3.65
3.64
3.645
3.635
3.635
3.645
3.645
3.645
3.645
3.63
3.665
3.715
3.795
3.89
3.97
4.125
4.285
4.465
4.66
4.83
4.965
4.905
4.695
4.475
4.23
3.96
3.81
3.74
3.67
3.68
3.705
3.71
3.675
3.65
3.62
3.59
3.585
3.57
3.56
3.55
3.555
3.555
3.55
3.55
3.535
3.535
3.53
3.52
3.53
3.53
3.52
3.525
3.53
3.53
3.535
3.52
3.515
3.53
3.515
3.52
3.52
3.52
3.52
3.51
3.505
3.485
3.495
3.505
3.495
3.49
3.495
3.48
3.48
3.475
3.465
3.47
3.475
3.46
3.495
3.505
3.505
3.5
3.515
3.52
3.525
3.555
3.565
3.595
3.6
3.63
3.655
3.695
3.735
3.755
3.79
3.825
3.845
3.875
3.875
3.87
3.875
3.88
3.885
3.885
3.88
3.87
3.845
3.825
3.82
3.805
3.775
3.66
3.715
3.745
3.73
3.735
3.72
3.715
3.715
3.72
3.725
3.7
3.7
3.695
3.695
3.695
3.695
3.675
3.695
3.685
3.7
3.705
3.705
3.69
3.7
3.685
3.695
3.685
3.695
3.68
3.675
3.66
3.675
3.67
3.69
3.685
3.695
3.69
3.69
3.68
3.7
3.695
3.68
3.685
3.695
3.685
3.675
3.685
3.695
3.695
3.695
3.695
3.7
3.67
3.675
3.675
3.69
3.69
3.695
3.685
3.675
3.665
3.68
3.7
3.71
3.7
3.7
3.695
3.695
3.705
3.7
3.695
3.695
3.695
3.695
3.695
3.695
3.695
3.69
3.685
3.695
3.7
3.69
3.685
3.695
3.71
3.735
3.755
3.765
3.765
3.77
3.75
3.775
3.79
3.825
3.845
3.845
3.84
3.83
3.865
3.875
3.865
3.835
3.81
3.79
3.79
3.77
3.74
3.705
3.685
3.66
3.67
3.68
3.695
3.685
3.675
3.665
3.66
3.66
3.66
3.65
3.65
3.66
3.65
3.665
3.68
3.685
3.7
3.77
3.84
3.93
4.03
4.16
4.315
4.525
4.725
4.91
4.99
4.825
4.565
4.33
4.09
3.87
3.74
3.65
3.62
3.61
3.65
3.645
3.63
3.62
3.605
3.6
3.595
3.58
3.56
3.57
3.565
3.565
3.57
3.575
3.56
3.56
3.555
3.56
3.56
3.555
3.555
3.55
3.56
3.535
3.55
3.54
3.545
3.555
3.54
3.54
3.535
3.54
3.53
3.52
3.525
3.52
3.52
3.53
3.53
3.545
3.535
3.52
3.515
3.515
3.52
3.54
3.525
3.515
3.505
3.505
3.52
3.54
3.535
3.55
3.555
3.58
3.6
3.62
3.63
3.655
3.67
3.715
3.77
3.78
3.8
3.835
3.86
3.89
3.9
3.9
3.91
3.9
3.895
3.89
3.87
3.855
3.825
3.825
3.81
3.805
3.79
3.78
3.755
3.755
3.755
3.765
3.75
3.74
3.735
3.73
3.725
3.735
3.715
3.715
3.725
3.735
3.735
3.735
3.74
3.735
3.72
3.715
3.715
3.725
3.725
3.72
3.715
3.72
3.72
3.715
3.715
3.715
3.7
3.71
3.715
3.73
3.7
3.71
3.705
3.695
3.705
3.7
3.7
3.7
3.695
3.695
3.695
3.695
3.695
3.695
3.7
3.695
3.7
3.7
3.695
3.695
3.7
3.71
3.72
3.715
3.705
3.715
3.705
3.7
3.7
3.71
3.7
3.7
3.695
3.675
3.665
3.685
3.7
3.715
3.7
3.715
3.715
3.71
3.71
3.71
3.705
3.715
3.715
3.71
3.715
3.735
3.75
3.765
3.755
3.77
3.785
3.785
3.805
3.825
3.845
3.845
3.845
3.845
3.85
3.88
3.88
3.87
3.86
3.845
3.825
3.81
3.77
3.745
3.72
3.705
3.705
3.685
3.685
3.685
3.7
3.69
3.7
3.695
3.695
3.69
3.695
3.695
3.695
3.695
3.72
3.71
3.73
3.775
3.84
3.925
4.015
4.155
4.315
4.535
4.7
4.87
4.995
4.965
4.74
4.505
4.265
4.005
3.86
3.775
3.725
3.71
3.735
3.705
3.685
3.665
3.64
3.64
3.605
3.57
3.565
3.565
3.565
3.57
3.58
3.58
3.57
3.565
3.56
3.56
3.565
3.57
3.58
3.555
3.56
3.57
3.55
3.55
3.54
3.56
3.56
3.54
3.545
3.54
3.545
3.52
3.515
3.52
3.52
3.52
3.52
3.515
3.495
3.505
3.5
3.52
3.495
3.495
3.505
3.515
3.52
3.52
3.505
3.53
3.52
3.525
3.54
3.545
3.56
3.56
3.6
3.625
3.665
3.685
3.71
3.745
3.77
3.79
3.84
3.865
3.86
3.875
3.89
3.9
3.89
3.88
3.86
3.85
3.825
3.82
3.805
3.785
3.77
3.76
3.745
3.745
3.75
3.74
3.72
3.72
3.705
3.715
3.715
3.725
3.735
3.72
3.715
3.695
3.695
3.695
3.695
3.715
3.715
3.715
3.715
3.71
3.695
3.7
3.715
3.71
3.7
3.685
3.675
3.68
3.695
3.69
3.695
3.685
3.695
3.695
3.7
3.7
3.685
3.685
3.675
3.665
3.695
3.685
3.685
3.675
3.695
3.695
3.695
3.695
3.695
3.695
3.68
3.695
3.685
3.685
3.665
3.685
3.68
3.695
3.665
3.695
3.7
3.7
3.685
3.7
3.695
3.7
3.685
3.7
3.69
3.695
3.675
3.68
3.685
3.695
3.695
3.695
3.7
3.695
3.7
3.695
3.715
3.735
3.75
3.745
3.755
3.755
3.775
3.78
3.775
3.805
3.81
3.82
3.825
3.83
3.86
3.88
3.88
3.855
3.84
3.825
3.825
3.825
3.785
3.745
3.72
3.695
3.685
3.675
3.67
3.69
3.665
3.69
3.68
3.685
3.67
3.675
3.685
3.695
3.68
3.69
3.68
3.685
3.695
3.75
3.82
3.88
3.995
4.095
4.24
4.415
4.595
4.795
4.955
5.005
4.775
4.525
4.29
4.01
3.84
3.75
3.675
3.65
3.65
3.675
3.67
3.65
3.655
3.645
3.625
3.61
3.595
3.59
3.6
3.59
3.59
3.59
3.59
3.59
3.575
3.59
3.565
3.565
3.555
3.56
3.56
3.565
3.56
3.56
3.565
3.565
3.565
3.57
3.57
3.575
3.57
3.565
3.565
3.555
3.54
3.54
3.525
3.53
3.52
3.52
3.525
3.52
3.545
3.53
3.52
3.52
3.52
3.53
3.545
3.54
3.56
3.57
3.585
3.595
3.605
3.605
3.63
3.655
3.675
3.715
3.74
3.75
3.8
3.82
3.84
3.875
3.91
3.915
3.915
3.915
3.925
3.91
3.89
3.885
3.865
3.86
3.845
3.83
3.815
3.8
3.78
3.77
3.76
3.745
3.74
3.74
3.74
3.725
3.73
3.71
3.705
3.72
3.715
3.715
3.7
3.72
3.71
3.715
3.72
3.715
3.715
3.715
3.695
3.705
3.71
3.72
3.72
3.71
3.7
3.7
3.7
3.7
3.7
3.7
3.685
3.7
3.7
3.69
3.685
3.7
3.7
3.705
3.7
3.71
3.7
3.685
3.685
3.695
3.69
3.69
3.685
3.69
3.69
3.695
3.695
3.695
3.68
3.695
3.68
3.685
3.69
3.7
3.695
3.705
3.71
3.71
3.7
3.715
3.7
3.7
3.715
3.71
3.705
3.715
3.7
3.7
3.705
3.7
3.715
3.71
3.71
3.69
3.7
3.72
3.74
3.74
3.75
3.77
3.775
3.775
3.785
3.82
3.825
3.84
3.825
3.845
3.865
3.88
3.885
3.86
3.835
3.825
3.815
3.81
3.765
3.74
3.71
3.695
3.68
3.695
3.665
3.675
3.67
3.69
3.695
3.675
3.665
3.67
3.67
3.655
3.66
3.67
3.665
3.675
3.685
3.735
3.805
3.9
3.995
4.13
4.275
4.455
4.63
4.815
4.93
4.995
4.795
4.57
4.325
4.075
3.9
3.805
3.725
3.695
3.7
3.695
3.68
3.67
3.645
3.615
3.625
3.6
3.59
3.59
3.575
3.58
3.575
3.58
3.575
3.575
3.575
3.57
3.575
3.57
3.565
3.57
3.56
3.57
3.565
3.565
3.56
3.53
3.535
3.535
3.535
3.525
3.525
3.53
3.525
3.53
3.54
3.545
3.535
3.53
3.525
3.52
3.52
3.52
3.515
3.505
3.495
3.5
3.515
3.525
3.52
3.52
3.525
3.53
3.56
3.555
3.57
3.6
3.61
3.65
3.695
3.705
3.74
3.775
3.815
3.835
3.87
3.88
3.89
3.905
3.9
3.915
3.91
3.895
3.875
3.885
3.855
3.755
3.775
3.785
3.77
3.76
3.765
3.755
3.75
3.76
3.755
3.75
3.74
3.74
3.735
3.73
3.735
3.715
3.715
3.72
3.72
3.72
3.715
3.715
3.725
3.725
3.7
3.685
3.705
3.71
3.715
3.71
3.7
3.7
3.705
3.715
3.715
3.715
3.7
3.705
3.72
3.715
3.715
3.72
3.705
3.7
3.705
3.72
3.73
3.715
3.7
3.72
3.71
3.7
3.7
3.715
3.695
3.695
3.715
3.73
3.715
3.705
3.7
3.72
3.695
3.705
3.7
3.71
3.695
3.705
3.7
3.695
3.695
3.7
3.695
3.7
3.695
3.71
3.715
3.71
3.7
3.71
3.715
3.7
3.7
3.695
3.7
3.7
3.7
3.7
3.735
3.74
3.755
3.76
3.78
3.78
3.77
3.785
3.82
3.83
3.825
3.825
3.84
3.87
3.9
3.88
3.86
3.84
3.815
3.805
3.78
3.77
3.735
3.7
3.685
3.695
3.695
3.675
3.67
3.675
3.66
3.665
3.675
3.665
3.665
3.67
3.685
3.675
3.68
3.695
3.695
3.71
3.77
3.84
3.95
4.015
4.19
4.345
4.51
4.69
4.86
5
4.87
4.63
4.425
4.2
3.955
3.84
3.76
3.695
3.7
3.725
3.7
3.68
3.645
3.615
3.61
3.595
3.59
3.585
3.575
3.575
3.56
3.565
3.565
3.56
3.57
3.56
3.56
3.54
3.545
3.565
3.555
3.555
3.54
3.56
3.565
3.555
3.56
3.56
3.56
3.54
3.535
3.54
3.52
3.515
3.52
3.52
3.52
3.52
3.51
3.505
3.5
3.5
3.5
3.5
3.51
3.505
3.49
3.5
3.52
3.52
3.525
3.53
3.53
3.55
3.56
3.585
3.595
3.625
3.635
3.67
3.7
3.725
3.765
3.785
3.825
3.86
3.88
3.89
3.91
3.905
3.89
3.9
3.89
3.885
3.875
3.85
3.84
3.82
3.79
3.785
3.78
3.78
3.775
3.77
3.745
3.735
3.72
3.725
3.73
3.735
3.72
3.73
3.72
3.725
3.74
3.735
3.73
3.73
3.735
3.73
3.74
3.715
3.72
3.71
3.715
3.715
3.72
3.72
3.725
3.725
3.72
3.7
3.695
3.715
3.7
3.73
3.72
3.715
3.7
3.715
3.71
3.73
3.72
3.72
3.715
3.715
3.72
3.72
3.705
3.72
3.72
3.715
3.72
3.715
3.715
3.71
3.715
3.71
3.72
3.72
3.735
3.74
3.74
3.72
3.685
3.73
3.715
3.73
3.71
3.715
3.715
3.715
3.71
3.715
3.72
3.725
3.705
3.715
3.72
3.73
3.725
3.74
3.74
3.755
3.775
3.78
3.775
3.785
3.8
3.805
3.81
3.84
3.86
3.86
3.86
3.87
3.91
3.925
3.9
3.865
3.85
3.845
3.84
3.82
3.78
3.755
3.74
3.735
3.73
3.72
3.695
3.695
3.695
3.695
3.7
3.69
3.7
3.695
3.715
3.71
3.7
3.695
3.7
3.705
3.745
3.825
3.875
3.985
4.125
4.27
4.4
4.575
4.805
4.93
5.01
4.75
4.5
4.29
4.045
3.865
3.745
3.665
3.63
3.65
3.67
3.69
3.675
3.66
3.645
3.625
3.625
3.61
3.61
3.61
3.61
3.6
3.605
3.605
3.6
3.59
3.595
3.58
3.59
3.57
3.575
3.56
3.58
3.565
3.565
3.58
3.575
3.565
3.565
3.56
3.56
3.57
3.575
3.565
3.56
3.56
3.56
3.545
3.54
3.525
3.53
3.53
3.53
3.535
3.555
3.54
3.54
3.555
3.555
3.56
3.555
3.56
3.565
3.57
3.595
3.61
3.63
3.65
3.665
3.705
3.735
3.75
3.785
3.825
3.835
3.86
3.88
3.9
3.915
3.92
3.91
3.915
3.885
3.87
3.865
3.845
3.845
3.84
3.82
3.8
3.8
3.79
3.785
3.75
3.755
3.755
3.755
3.765
3.755
3.745
3.735
3.735
3.73
3.735
3.72
3.735
3.73
3.74
3.74
3.74
3.745
3.74
3.745
3.74
3.735
3.725
3.725
3.72
3.735
3.74
3.735
3.72
3.7
3.71
3.715
3.725
3.7
3.705
3.715
3.715
3.71
3.715
3.715
3.71
3.72
3.735
3.715
3.715
3.705
3.7
3.72
3.71
3.7
3.71
3.715
3.705
3.715
3.71
3.72
3.71
3.71
3.71
3.715
3.7
3.705
3.7
3.695
3.72
3.725
3.715
3.715
3.715
3.7
3.715
3.715
3.72
3.71
3.705
3.715
3.725
3.725
3.72
3.735
3.735
3.745
3.77
3.77
3.79
3.79
3.785
3.795
3.82
3.83
3.84
3.85
3.845
3.87
3.885
3.895
3.87
3.84
3.83
3.82
3.815
3.78
3.755
3.745
3.715
3.705
3.715
3.7
3.7
3.7
3.695
3.705
3.695
3.695
3.7
3.69
3.695
3.7
3.705
3.7
3.695
3.71
3.765
3.83
3.9
4.02
4.115
4.25
4.435
4.645
4.81
4.955
4.975
4.75
4.54
4.235
4.005
3.845
3.77
3.72
3.715
3.73
3.74
3.7
3.675
3.635
3.625
3.605
3.59
3.585
3.59
3.59
3.585
3.59
3.565
3.575
3.57
3.565
3.58
3.59
3.57
3.565
3.57
3.575
3.56
3.555
3.56
3.56
3.555
3.555
3.545
3.54
3.555
3.56
3.56
3.56
3.55
3.54
3.555
3.525
3.515
3.52
3.52
3.535
3.54
3.54
3.545
3.555
3.535
3.53
3.52
3.515
3.52
3.535
3.555
3.56
3.57
3.585
3.6
3.62
3.65
3.66
3.695
3.72
3.77
3.805
3.825
3.86
3.875
3.905
3.91
3.9
3.895
3.89
3.89
3.885
3.87
3.85
3.82
3.825
3.8
3.78
3.775
3.765
3.755
3.745
3.745
3.74
3.74
3.725
3.74
3.72
3.725
3.74
3.745
3.72
3.72
3.705
3.705
3.715
3.695
3.7
3.705
3.705
3.68
3.7
3.69
3.685
3.7
3.7
3.7
3.705
3.7
3.705
3.695
3.695
3.685
3.695
3.695
3.695
3.685
3.69
3.66
3.685
3.695
3.685
3.68
3.68
3.685
3.68
3.68
3.68
3.675
3.68
3.695
3.695
3.695
3.685
3.675
3.685
3.685
3.685
3.695
3.68
3.68
3.675
3.69
3.685
3.695
3.695
3.69
3.675
3.68
3.685
3.7
3.695
3.695
3.695
3.695
3.685
3.7
3.7
3.695
3.705
3.7
3.71
3.705
3.72
3.735
3.745
3.765
3.77
3.785
3.78
3.775
3.81
3.825
3.845
3.84
3.825
3.85
3.865
3.875
3.86
3.835
3.825
3.805
3.785
3.775
3.735
3.705
3.665
3.685
3.67
3.685
3.685
3.675
3.65
3.66
3.66
3.665
3.67
3.675
3.665
3.665
3.665
3.665
3.675
3.695
3.71
3.79
3.88
3.97
4.095
4.215
4.365
4.55
4.75
4.885
4.995
4.825
4.575
4.345
4.08
3.86
3.755
3.665
3.65
3.665
3.685
3.695
3.675
3.655
3.635
3.61
3.595
3.595
3.595
3.605
3.6
3.585
3.575
3.565
3.545
3.56
3.56
3.555
3.56
3.59
3.585
3.565
3.57
3.55
3.56
3.56
3.555
3.56
3.555
3.56
3.54
3.54
3.53
3.535
3.535
3.54
3.545
3.555
3.54
3.54
3.535
3.53
3.54
3.52
3.525
3.52
3.52
3.51
3.525
3.535
3.54
3.56
3.57
3.58
3.585
3.58
3.6
3.615
3.64
3.675
3.71
3.735
3.755
3.79
3.825
3.86
3.88
3.875
3.9
3.92
3.905
3.93
3.925
3.9
3.84
3.81
3.82
3.82
3.82
3.82
3.8
3.785
3.785
3.785
3.775
3.755
3.745
3.74
3.74
3.75
3.74
3.74
3.74
3.72
3.72
3.72
3.73
3.72
3.735
3.735
3.735
3.74
3.725
3.72
3.725
3.735
3.74
3.74
3.74
3.72
3.715
3.7
3.72
3.72
3.735
3.745
3.745
3.735
3.73
3.73
3.725
3.735
3.735
3.735
3.735
3.715
3.705
3.715
3.71
3.71
3.705
3.7
3.705
3.7
3.695
3.7
3.715
3.72
3.72
3.72
3.725
3.725
3.72
3.725
3.73
3.735
3.72
3.72
3.71
3.705
3.72
3.73
3.71
3.71
3.715
3.7
3.705
3.705
3.715
3.705
3.71
3.71
3.715
3.72
3.75
3.77
3.775
3.775
3.78
3.805
3.805
3.81
3.85
3.86
3.845
3.83
3.845
3.87
3.9
3.885
3.865
3.845
3.825
3.82
3.805
3.77
3.735
3.71
3.695
3.705
3.695
3.695
3.69
3.69
3.68
3.675
3.68
3.685
3.685
3.685
3.67
3.675
3.675
3.695
3.695
3.73
3.78
3.84
3.925
4.005
4.13
4.26
4.445
4.65
4.845
4.975
4.97
4.7
4.475
4.22
3.985
3.825
3.74
3.685
3.665
3.695
3.695
3.665
3.655
3.635
3.62
3.605
3.59
3.565
3.565
3.57
3.565
3.565
3.57
3.57
3.57
3.565
3.565
3.56
3.555
3.565
3.575
3.57
3.56
3.56
3.54
3.54
3.54
3.535
3.54
3.535
3.535
3.535
3.53
3.52
3.52
3.515
3.5
3.505
3.495
3.505
3.49
3.51
3.505
3.505
3.52
3.505
3.52
3.52
3.505
3.505
3.5
3.515
3.53
3.53
3.55
3.555
3.575
3.61
3.645
3.665
3.695
3.74
3.765
3.78
3.805
3.84
3.865
3.89
3.885
3.89
3.89
3.89
3.875
3.86
3.845
3.825
3.81
3.805
3.785
3.785
3.785
3.775
3.77
3.74
3.725
3.725
3.72
3.72
3.72
3.715
3.725
3.715
3.72
3.72
3.715
3.705
3.7
3.7
3.7
3.695
3.685
3.695
3.695
3.695
3.695
3.695
3.685
3.705
3.7
3.695
3.705
3.715
3.695
3.7
3.685
3.685
3.7
3.7
3.695
3.7
3.695
3.685
3.685
3.685
3.67
3.685
3.685
3.695
3.685
3.675
3.675
3.695
3.685
3.685
3.68
3.695
3.68
3.685
3.685
3.69
3.665
3.675
3.655
3.73
3.71
3.71
3.7
3.695
3.68
3.685
3.695
3.695
3.685
3.685
3.695
3.675
3.675
3.69
3.68
3.66
3.66
3.675
3.67
3.695
3.695
3.695
3.72
3.735
3.755
3.765
3.77
3.77
3.775
3.8
3.82
3.84
3.825
3.835
3.845
3.85
3.845
3.835
3.82
3.805
3.785
3.765
3.755
3.74
3.705
3.69
3.69
3.675
3.675
3.665
3.65
3.665
3.655
3.65
3.655
3.665
3.66
3.66
3.655
3.675
3.665
3.675
3.7
3.74
3.805
3.895
4.03
4.125
4.27
4.475
4.63
4.83
4.965
4.955
4.7
4.47
4.235
3.97
3.825
3.72
3.69
3.685
3.7
3.695
3.66
3.63
3.61
3.59
3.57
3.575
3.565
3.565
3.54
3.535
3.54
3.53
3.53
3.54
3.52
3.52
3.53
3.525
3.535
3.53
3.545
3.535
3.525
3.53
3.52
3.5
3.52
3.52
3.53
3.52
3.52
3.52
3.515
3.5
3.505
3.475
3.47
3.47
3.485
3.5
3.485
3.48
3.5
3.5
3.495
3.5
3.495
3.485
3.485
3.5
3.505
3.495
3.505
3.515
3.525
3.565
3.575
3.625
3.635
3.65
3.695
3.74
3.775
3.795
3.84
3.87
3.88
3.88
3.9
3.89
3.87
3.85
3.84
3.84
3.825
3.805
3.79
3.765
3.74
3.745
3.745
3.74
3.735
3.735
3.735
3.73
3.72
3.72
3.705
3.72
3.72
3.71
3.685
3.695
3.695
3.715
3.695
3.71
3.695
3.685
3.665
3.69
3.68
3.695
3.685
3.695
3.685
3.685
3.67
3.69
3.675
3.675
3.675
3.675
3.68
3.68
3.675
3.685
3.685
3.68
3.68
3.675
3.695
3.675
3.665
3.695
3.74
3.78
3.81
3.825
3.83
3.86
3.89
3.915
3.91
3.91
3.9
3.88
3.855
3.84
3.84
3.8
3.775
3.765
3.73
3.71
3.685
3.675
3.665
3.66
3.66
3.665
3.66
3.655
3.645
3.63
3.615
3.625
3.63
3.64
3.66
3.66
3.655
3.645
3.635
3.655
3.66
3.66
3.675
3.7
3.755
3.84
3.935
4.045
4.185
4.325
4.51
4.72
4.895
5.005
4.825
4.565
4.32
4.085
3.855
3.73
3.64
3.58
3.6
3.64
3.645
3.645
3.605
3.6
3.575
3.565
3.56
3.535
3.555
3.555
3.54
3.55
3.53
3.545
3.54
3.545
3.555
3.555
3.55
3.56
3.55
3.56
3.55
3.555
3.545
3.5
3.54
3.525
3.53
3.53
3.53
3.53
3.53
3.53
3.535
3.53
3.53
3.52
3.52
3.52
3.52
3.52
3.52
3.52
3.535
3.535
3.545
3.54
3.545
3.555
3.555
3.565
3.565
3.56
3.6
3.61
3.64
3.655
3.69
3.72
3.74
3.775
3.815
3.84
3.855
3.875
3.89
3.89
3.895
3.89
3.88
3.865
3.855
3.84
3.82
3.815
3.8
3.78
3.76
3.74
3.725
3.735
3.72
3.73
3.725
3.72
3.715
3.71
3.705
3.705
3.705
3.71
3.71
3.71
3.7
3.7
3.715
3.695
3.685
3.685
3.695
3.69
3.7
3.7
3.7
3.695
3.695
3.685
3.695
3.685
3.695
3.685
3.69
3.68
3.695
3.7
3.69
3.68
3.695
3.685
3.69
3.675
3.675
3.675
3.675
3.67
3.68
3.67
3.685
3.665
3.675
3.675
3.67
3.67
3.685
3.675
3.68
3.685
3.68
3.685
3.695
3.69
3.68
3.675
3.68
3.675
3.665
3.68
3.68
3.675
3.67
3.665
3.66
3.66
3.66
3.665
3.685
3.675
3.68
3.675
3.67
3.67
3.675
3.66
3.68
3.675
3.675
3.675
3.67
3.66
3.665
3.675
3.68
3.665
3.685
3.685
3.685
3.69
3.68
3.685
3.67
3.68
3.695
3.685
3.69
3.695
3.695
3.695
3.695
3.68
3.695
3.69
3.68
3.685
3.695
3.695
3.715
3.735
3.74
3.74
3.745
3.75
3.775
3.795
3.81
3.825
3.83
3.825
3.845
3.875
3.875
3.835
3.805
3.79
3.775
3.775
3.76
3.735
3.68
3.67
3.68
3.695
3.675
3.675
3.65
3.66
3.665
3.67
3.66
3.65
3.655
3.685
3.67
3.66
3.66
3.67
3.68
3.74
3.82
3.915
4.015
4.155
4.305
4.485
4.685
4.845
4.99
4.92
4.685
4.46
4.215
3.98
3.865
3.755
3.725
3.7
3.73
3.685
3.665
3.63
3.615
3.605
3.585
3.575
3.565
3.56
3.555
3.535
3.535
3.52
3.53
3.53
3.525
3.53
3.53
3.53
3.535
3.53
3.52
3.52
3.505
3.52
3.53
3.53
3.52
3.515
3.51
3.505
3.5
3.475
3.47
3.475
3.5
3.5
3.475
3.495
3.475
3.475
3.48
3.475
3.485
3.485
3.48
3.485
3.47
3.475
3.48
3.5
3.5
3.52
3.52
3.535
3.545
3.55
3.575
3.61
3.63
3.665
3.705
3.74
3.775
3.82
3.86
3.87
3.885
3.82
3.84
3.865
3.89
3.88
3.88
3.88
3.875
3.865
3.85
3.825
3.805
3.78
3.765
3.755
3.74
3.74
3.74
3.755
3.745
3.74
3.72
3.73
3.735
3.735
3.72
3.72
3.71
3.7
3.715
3.705
3.7
3.695
3.7
3.695
3.695
3.695
3.695
3.695
3.695
3.685
3.695
3.69
3.695
3.695
3.7
3.71
3.71
3.695
3.685
3.69
3.68
3.695
3.695
3.695
3.695
3.675
3.67
3.665
3.67
3.68
3.695
3.695
3.695
3.68
3.68
3.685
3.69
3.695
3.7
3.71
3.7
3.7
3.695
3.695
3.695
3.69
3.67
3.67
3.66
3.67
3.665
3.685
3.685
3.685
3.67
3.675
3.685
3.685
3.695
3.7
3.695
3.67
3.685
3.685
3.69
3.695
3.7
3.73
3.745
3.735
3.74
3.765
3.755
3.755
3.78
3.81
3.825
3.82
3.81
3.825
3.87
3.875
3.865
3.835
3.81
3.795
3.775
3.77
3.745
3.715
3.68
3.665
3.665
3.665
3.675
3.685
3.655
3.66
3.65
3.65
3.665
3.65
3.66
3.65
3.66
3.65
3.66
3.675
3.68
3.74
3.805
3.915
4.005
4.165
4.295
4.51
4.71
4.895
4.99
4.82
4.54
4.31
4.07
3.855
3.725
3.61
3.585
3.605
3.63
3.63
3.645
3.62
3.595
3.59
3.59
3.585
3.57
3.555
3.565
3.545
3.54
3.53
3.53
3.55
3.54
3.55
3.54
3.54
3.545
3.545
3.52
3.52
3.52
3.525
3.52
3.52
3.53
3.535
3.53
3.53
3.52
3.515
3.52
3.515
3.53
3.515
3.51
3.495
3.5
3.495
3.5
3.505
3.505
3.48
3.48
3.485
3.495
3.505
3.505
3.52
3.52
3.53
3.555
3.565
3.57
3.59
3.615
3.63
3.67
3.685
3.72
3.765
3.805
3.825
3.83
3.86
3.875
3.88
3.875
3.87
3.86
3.86
3.865
3.825
3.8
3.795
3.775
3.77
3.74
3.735
3.72
3.735
3.72
3.725
3.7
3.7
3.7
3.705
3.7
3.71
3.71
3.71
3.7
3.695
3.7
3.7
3.7
3.7
3.7
3.685
3.695
3.695
3.7
3.695
3.695
3.69
3.695
3.695
3.695
3.695
3.695
3.695
3.695
3.695
3.68
3.67
3.675
3.67
3.68
3.68
3.675
3.67
3.68
3.68
3.685
3.695
3.695
3.685
3.695
3.69
3.695
3.68
3.685
3.685
3.685
3.685
3.705
3.685
3.68
3.665
3.61
3.61
3.645
3.66
3.675
3.665
3.67
3.665
3.67
3.665
3.68
3.695
3.685
3.675
3.675
3.67
3.67
3.67
3.685
3.69
3.685
3.685
3.715
3.725
3.735
3.74
3.745
3.74
3.76
3.77
3.775
3.805
3.82
3.825
3.82
3.82
3.845
3.88
3.865
3.84
3.81
3.795
3.775
3.755
3.74
3.725
3.69
3.675
3.665
3.665
3.665
3.67
3.68
3.66
3.665
3.665
3.665
3.66
3.67
3.66
3.67
3.66
3.665
3.665
3.695
3.74
3.82
3.91
4.025
4.155
4.31
4.505
4.675
4.88
5
4.935
4.655
4.435
4.19
3.955
3.81
3.73
3.67
3.65
3.67
3.67
3.64
3.615
3.595
3.59
3.575
3.56
3.56
3.56
3.56
3.555
3.56
3.555
3.55
3.56
3.54
3.555
3.535
3.53
3.52
3.52
3.52
3.51
3.52
3.515
3.505
3.52
3.515
3.52
3.515
3.51
3.52
3.505
3.505
3.505
3.485
3.48
3.485
3.48
3.495
3.485
3.475
3.48
3.475
3.47
3.485
3.465
3.46
3.475
3.485
3.48
3.485
3.505
3.52
3.53
3.54
3.585
3.595
3.61
3.645
3.675
3.705
3.735
3.745
3.79
3.81
3.84
3.855
3.86
3.865
3.86
3.86
3.86
3.825
3.81
3.805
3.805
3.785
3.77
3.765
3.745
3.74
3.74
3.72
3.72
3.705
3.7
3.7
3.7
3.7
3.695
3.69
3.685
3.685
3.685
3.695
3.685
3.67
3.68
3.68
3.66
3.655
3.665
3.665
3.665
3.675
3.675
3.675
3.66
3.66
3.66
3.66
3.665
3.655
3.65
3.65
3.65
3.66
3.67
3.66
3.66
3.65
3.645
3.645
3.655
3.67
3.665
3.67
3.655
3.665
3.65
3.675
3.675
3.68
3.65
3.665
3.655
3.65
3.65
3.65
3.64
3.645
3.63
3.65
3.65
3.65
3.65
3.65
3.65
3.645
3.66
3.665
3.665
3.67
3.665
3.67
3.665
3.66
3.65
3.65
3.66
3.665
3.665
3.66
3.675
3.685
3.7
3.705
3.725
3.74
3.745
3.745
3.745
3.78
3.81
3.79
3.805
3.82
3.825
3.86
3.845
3.825
3.81
3.79
3.785
3.755
3.74
3.715
3.69
3.655
3.655
3.65
3.65
3.655
3.65
3.645
3.645
3.655
3.64
3.67
3.665
3.66
3.65
3.66
3.65
3.65
3.65
3.695
3.775
3.84
3.935
4.075
4.215
4.085
4.315
4.6
4.805
4.895
4.685
4.48
4.27
4.03
3.825
3.735
3.645
3.625
3.63
3.63
3.63
3.61
3.605
3.58
3.565
3.56
3.535
3.54
3.52
3.535
3.53
3.52
3.52
3.53
3.525
3.525
3.53
3.53
3.52
3.505
3.52
3.505
3.515
3.505
3.52
3.51
3.515
3.505
3.52
3.51
3.505
3.505
3.485
3.495
3.505
3.49
3.485
3.475
3.48
3.5
3.485
3.48
3.5
3.485
3.475
3.48
3.485
3.47
3.48
3.475
3.48
3.5
3.505
3.53
3.56
3.57
3.59
3.6
3.625
3.65
3.68
3.71
3.74
3.775
3.805
3.825
3.845
3.85
3.86
3.88
3.87
3.86
3.845
3.83
3.825
3.815
3.79
3.78
3.745
3.73
3.715
3.715
3.71
3.71
3.695
3.695
3.695
3.685
3.7
3.695
3.69
3.695
3.7
3.69
3.695
3.695
3.685
3.675
3.665
3.665
3.665
3.665
3.675
3.675
3.665
3.67
3.675
3.665
3.665
3.675
3.66
3.665
3.68
3.66
3.66
3.67
3.655
3.66
3.67
3.67
3.65
3.65
3.655
3.665
3.665
3.66
3.675
3.66
3.66
3.66
3.64
3.645
3.65
3.65
3.65
3.66
3.665
3.655
3.66
3.645
3.65
3.65
3.65
3.66
3.66
3.65
3.65
3.645
3.66
3.655
3.665
3.665
3.665
3.655
3.67
3.68
3.665
3.65
3.665
3.665
3.675
3.665
3.665
3.67
3.7
3.715
3.715
3.74
3.745
3.745
3.765
3.775
3.8
3.81
3.8
3.79
3.82
3.825
3.845
3.84
3.81
3.79
3.78
3.775
3.755
3.74
3.7
3.66
3.65
3.65
3.66
3.66
3.655
3.65
3.64
3.645
3.64
3.65
3.65
3.65
3.645
3.65
3.64
3.65
3.65
3.695
3.745
3.82
3.905
4.02
4.145
4.29
4.49
4.685
4.875
5.005
4.84
4.565
4.33
4.09
3.87
3.74
3.665
3.635
3.595
3.64
3.64
3.63
3.605
3.585
3.58
3.57
3.57
3.555
3.555
3.55
3.52
3.53
3.54
3.54
3.53
3.52
3.515
3.515
3.52
3.53
3.53
3.535
3.53
3.52
3.525
3.54
3.53
3.54
3.53
3.52
3.52
3.515
3.52
3.51
3.505
3.515
3.515
3.505
3.505
3.49
3.495
3.495
3.505
3.5
3.48
3.48
3.485
3.495
3.485
3.515
3.52
3.52
3.535
3.54
3.57
3.575
3.59
3.61
3.645
3.665
3.69
3.705
3.74
3.785
3.82
3.845
3.81
3.81
3.845
3.865
3.86
3.865
3.86
3.85
3.845
3.825
3.82
3.795
3.77
3.755
3.745
3.74
3.73
3.735
3.735
3.725
3.715
3.7
3.7
3.705
3.695
3.695
3.675
3.68
3.685
3.7
3.695
3.675
3.685
3.695
3.695
3.685
3.69
3.685
3.685
3.685
3.685
3.685
3.69
3.68
3.685
3.685
3.685
3.685
3.69
3.685
3.68
3.69
3.695
3.695
3.695
3.685
3.685
3.68
3.675
3.675
3.67
3.675
3.675
3.66
3.675
3.68
3.675
3.685
3.675
3.67
3.675
3.67
3.66
3.665
3.665
3.675
3.675
3.68
3.685
3.68
3.665
3.68
3.685
3.68
3.685
3.685
3.695
3.675
3.675
3.69
3.69
3.685
3.685
3.695
3.68
3.67
3.675
3.67
3.675
3.695
3.72
3.74
3.74
3.74
3.765
3.77
3.755
3.785
3.81
3.82
3.805
3.805
3.81
3.825
3.86
3.845
3.815
3.805
3.79
3.79
3.775
3.74
3.735
3.7
3.68
3.68
3.67
3.67
3.665
3.645
3.65
3.66
3.655
3.66
3.65
3.66
3.65
3.655
3.65
3.645
3.675
3.68
3.74
3.81
3.875
4
4.1
4.27
4.455
4.65
4.85
4.975
4.97
4.715
4.475
4.26
3.975
3.825
3.745
3.685
3.685
3.7
3.695
3.675
3.66
3.615
3.6
3.575
3.565
3.57
3.555
3.57
3.55
3.555
3.565
3.565
3.545
3.545
3.535
3.535
3.54
3.545
3.52
3.52
3.52
3.52
3.53
3.535
3.54
3.525
3.53
3.5
3.505
3.515
3.53
3.52
3.505
3.51
3.505
3.505
3.5
3.485
3.475
3.475
3.48
3.495
3.47
3.49
3.5
3.505
3.5
3.5
3.485
3.515
3.52
3.55
3.555
3.585
3.6
3.61
3.65
3.68
3.7
3.735
3.77
3.8
3.815
3.85
3.87
3.885
3.885
3.89
3.9
3.885
3.875
3.86
3.845
3.82
3.815
3.81
3.8
3.78
3.77
3.755
3.755
3.745
3.74
3.74
3.74
3.725
3.735
3.72
3.72
3.72
3.725
3.72
3.715
3.7
3.7
3.685
3.695
3.695
3.715
3.715
3.7
3.705
3.735
3.71
3.71
3.715
3.715
3.715
3.73
3.7
3.725
3.7
3.7
3.71
3.705
3.705
3.71
3.715
3.695
3.715
3.7
3.7
3.705
3.715
3.72
3.72
3.71
3.71
3.72
3.705
3.71
3.725
3.7
3.93
3.87
3.825
3.79
3.76
3.745
3.74
3.73
3.715
3.72
3.71
3.71
3.715
3.715
3.715
3.715
3.7
3.71
3.695
3.695
3.71
3.715
3.705
3.7
3.72
3.71
3.715
3.72
3.705
3.73
3.75
3.77
3.77
3.765
3.765
3.77
3.795
3.82
3.825
3.845
3.855
3.855
3.875
3.885
3.905
3.885
3.865
3.845
3.845
3.825
3.81
3.79
3.75
3.74
3.715
3.725
3.715
3.72
3.7
3.71
3.685
3.7
3.695
3.72
3.7
3.7
3.695
3.7
3.69
3.68
3.685
3.7
3.75
3.825
3.9
4
4.13
4.24
4.405
4.575
4.79
4.94
4.99
4.74
4.49
4.26
4.01
3.81
3.7
3.625
3.61
3.645
3.65
3.65
3.65
3.63
3.625
3.6
3.595
3.59
3.59
3.57
3.57
3.585
3.565
3.565
3.56
3.56
3.565
3.56
3.56
3.565
3.57
3.56
3.565
3.565
3.565
3.56
3.555
3.56
3.55
3.555
3.55
3.545
3.55
3.545
3.525
3.53
3.53
3.54
3.52
3.52
3.52
3.52
3.525
3.53
3.52
3.53
3.53
3.52
3.525
3.515
3.52
3.525
3.53
3.535
3.555
3.575
3.6
3.63
3.625
3.665
3.685
3.72
3.755
3.805
3.825
3.84
3.865
3.88
3.88
3.88
3.88
3.88
3.88
3.875
3.865
3.83
3.83
3.825
3.795
3.785
3.77
3.765
3.74
3.74
3.725
3.725
3.72
3.73
3.74
3.74
3.74
3.73
3.715
3.7
3.7
3.7
3.7
3.695
3.69
3.67
3.695
3.695
3.695
3.695
3.685
3.685
3.695
3.685
3.7
3.685
3.685
3.68
3.695
3.695
3.685
3.68
3.685
3.675
3.675
3.685
3.68
3.68
3.68
3.68
3.665
3.675
3.665
3.665
3.665
3.665
3.66
3.665
3.685
3.695
3.675
3.665
3.685
3.67
3.685
3.685
3.68
3.685
3.68
3.68
3.685
3.675
3.665
3.675
3.67
3.65
3.67
3.665
3.68
3.67
3.67
3.665
3.67
3.67
3.675
3.675
3.68
3.67
3.685
3.68
3.67
3.675
3.67
3.695
3.715
3.715
3.715
3.72
3.74
3.745
3.745
3.755
3.785
3.805
3.81
3.8
3.815
3.85
3.87
3.86
3.825
3.81
3.79
3.78
3.765
3.74
3.715
3.675
3.68
3.665
3.675
3.66
3.66
3.65
3.655
3.655
3.65
3.64
3.65
3.655
3.66
3.65
3.63
3.63
3.64
3.65
3.71
3.79
3.875
4
4.165
4.305
4.49
4.65
4.85
4.98
4.995
4.725
4.51
4.27
4
3.82
3.74
3.675
3.66
3.69
3.68
3.665
3.625
3.605
3.58
3.575
3.575
3.565
3.56
3.535
3.55
3.54
3.52
3.53
3.52
3.545
3.535
3.52
3.52
3.53
3.525
3.525
3.53
3.53
3.525
3.53
3.535
3.525
3.525
3.53
3.53
3.53
3.525
3.515
3.485
3.47
3.48
3.495
3.495
3.485
3.49
3.495
3.485
3.475
3.47
3.49
3.505
3.495
3.52
3.52
3.515
3.505
3.495
3.51
3.52
3.535
3.56
3.58
3.605
3.615
3.655
3.695
3.72
3.76
3.775
3.81
3.835
3.87
3.88
3.88
3.88
3.865
3.865
3.845
3.845
3.825
3.81
3.785
3.775
3.775
3.75
3.77
3.745
3.74
3.715
3.71
3.715
3.705
3.695
3.7
3.7
3.695
3.7
3.7
3.685
3.675
3.675
3.675
3.665
3.655
3.665
3.665
3.665
3.65
3.65
3.655
3.64
3.645
3.64
3.65
3.665
3.665
3.66
3.67
3.66
3.665
3.67
3.665
3.66
3.67
3.665
3.675
3.665
3.66
3.65
3.66
3.65
3.67
3.665
3.675
3.665
3.675
3.655
3.65
3.65
3.65
3.65
3.655
3.65
3.65
3.655
3.655
3.66
3.65
3.65
3.655
3.655
3.65
3.65
3.65
3.655
3.665
3.66
3.665
3.66
3.645
3.65
3.655
3.66
3.65
3.65
3.655
3.67
3.67
3.665
3.695
3.695
3.705
3.735
3.735
3.745
3.74
3.755
3.79
3.81
3.78
3.79
3.785
3.805
3.84
3.84
3.8
3.78
3.77
3.755
3.74
3.735
3.7
3.68
3.665
3.66
3.655
3.66
3.65
3.65
3.63
3.63
3.625
3.64
3.64
3.625
3.645
3.635
3.635
3.63
3.65
3.67
3.705
3.775
3.845
3.955
4.09
4.25
4.39
4.575
4.775
4.915
4.955
4.69
4.445
4.205
3.955
3.755
3.66
3.585
3.585
3.6
3.63
3.63
3.615
3.6
3.585
3.565
3.575
3.55
3.555
3.56
3.555
3.56
3.545
3.54
3.53
3.525
3.515
3.52
3.52
3.52
3.525
3.525
3.51
3.53
3.53
3.505
3.505
3.51
3.515
3.52
3.52
3.515
3.515
3.51
3.52
3.52
3.51
3.51
3.49
3.49
3.505
3.51
3.5
3.505
3.49
3.5
3.505
3.485
3.49
3.505
3.515
3.52
3.52
3.525
3.52
3.81
3.755
3.73
3.7
3.695
3.705
3.735
3.755
3.77
3.805
3.835
3.855
3.855
3.86
3.88
3.875
3.855
3.83
3.825
3.82
3.8
3.8
3.775
3.77
3.755
3.75
3.745
3.74
3.725
3.735
3.715
3.71
3.705
3.695
3.695
3.685
3.695
3.695
3.695
3.695
3.7
3.705
3.685
3.685
3.685
3.665
3.68
3.695
3.705
3.695
3.7
3.69
3.695
3.685
3.685
3.69
3.685
3.67
3.685
3.675
3.675
3.665
3.67
3.665
3.68
3.665
3.675
3.675
3.66
3.67
3.68
3.675
3.67
3.675
3.66
3.655
3.655
3.65
3.655
3.655
3.655
3.68
3.66
3.66
3.66
3.65
3.665
3.655
3.67
3.65
3.66
3.66
3.66
3.66
3.665
3.665
3.665
3.66
3.66
3.665
3.66
3.65
3.66
3.675
3.665
3.67
3.66
3.66
3.65
3.65
3.675
3.695
3.715
3.71
3.715
3.74
3.74
3.745
3.77
3.785
3.805
3.785
3.805
3.81
3.83
3.845
3.825
3.81
3.795
3.78
3.77
3.755
3.72
3.69
3.665
3.65
3.64
3.645
3.645
3.635
3.645
3.63
3.645
3.645
3.635
3.64
3.63
3.62
3.625
3.64
3.63
3.63
3.66
3.715
3.79
3.89
4
4.14
4.275
4.475
4.685
4.87
4.99
4.95
4.68
4.455
4.215
3.975
3.805
3.715
3.65
3.645
3.665
3.65
3.63
3.62
3.59
3.57
3.56
3.54
3.53
3.52
3.52
3.515
3.52
3.51
3.53
3.52
3.515
3.51
3.52
3.5
3.505
3.49
3.505
3.515
3.495
3.505
3.505
3.485
3.495
3.49
3.485
3.485
3.475
3.47
3.46
3.46
3.465
3.475
3.47
3.475
3.47
3.47
3.47
3.47
3.45
3.46
3.465
3.47
3.465
3.45
3.45
3.45
3.48
3.495
3.52
3.515
3.535
3.54
3.57
3.595
3.62
3.65
3.695
3.725
3.775
3.785
3.81
3.83
3.835
3.86
3.865
3.86
3.845
3.835
3.825
3.825
3.81
3.79
3.775
3.755
3.745
3.74
3.74
3.72
3.735
3.71
3.715
3.72
3.715
3.705
3.715
3.7
3.695
3.68
3.675
3.685
3.675
3.69
3.685
3.665
3.65
3.66
3.65
3.665
3.67
3.67
3.67
3.655
3.665
3.665
3.685
3.675
3.68
3.68
3.685
3.675
3.685
3.665
3.67
3.66
3.665
3.66
3.665
3.66
3.66
3.65
3.61
3.61
3.63
3.635
3.64
3.655
3.65
3.655
3.66
3.65
3.66
3.66
3.66
3.66
3.66
3.65
3.66
3.665
3.645
3.635
3.645
3.65
3.65
3.65
3.65
3.65
3.65
3.66
3.69
3.675
3.675
3.67
3.665
3.655
3.665
3.68
3.685
3.675
3.665
3.665
3.675
3.695
3.705
3.72
3.72
3.74
3.765
3.775
3.775
3.775
3.805
3.805
3.82
3.825
3.86
3.86
3.865
3.835
3.8
3.775
3.785
3.755
3.74
3.71
3.67
3.665
3.655
3.66
3.665
3.655
3.66
3.63
3.63
3.625
3.64
3.655
3.66
3.665
3.66
3.655
3.655
3.665
3.66
3.71
3.78
3.855
3.97
4.085
4.235
4.39
4.59
4.78
4.955
4.985
4.685
4.455
4.23
3.98
3.785
3.69
3.61
3.59
3.63
3.625
3.625
3.605
3.595
3.585
3.56
3.555
3.535
3.52
3.52
3.53
3.53
3.535
3.535
3.52
3.53
3.535
3.525
3.52
3.53
3.52
3.52
3.505
3.52
3.52
3.525
3.53
3.52
3.505
3.515
3.515
3.515
3.51
3.495
3.495
3.46
3.475
3.47
3.475
3.48
3.485
3.48
3.49
3.5
3.48
3.505
3.495
3.505
3.505
3.495
3.505
3.51
3.515
3.535
3.54
3.56
3.56
3.59
3.605
3.655
3.685
3.715
3.745
3.775
3.805
3.82
3.845
3.875
3.875
3.86
3.87
3.85
3.86
3.86
3.83
3.82
3.78
3.775
3.74
3.74
3.74
3.735
3.74
3.715
3.71
3.7
3.7
3.695
3.685
3.685
3.685
3.68
3.685
3.67
3.69
3.68
3.685
3.685
3.675
3.665
3.685
3.665
3.675
3.67
3.675
3.685
3.685
3.68
3.675
3.68
3.675
3.67
3.685
3.695
3.695
3.68
3.675
3.67
3.665
3.675
3.67
3.675
3.665
3.66
3.665
3.66
3.665
3.665
3.665
3.66
3.675
3.665
3.685
3.66
3.66
3.66
3.665
3.665
3.67
3.67
3.665
3.665
3.675
3.67
3.675
3.67
3.675
3.665
3.66
3.67
3.675
3.68
3.66
3.675
3.675
3.685
3.685
3.685
3.69
3.685
3.675
3.68
3.685
3.68
3.7
3.685
3.72
3.735
3.74
3.74
3.755
3.755
3.755
3.795
3.82
3.825
3.825
3.825
3.825
3.865
3.885
3.86
3.825
3.81
3.795
3.78
3.765
3.74
3.73
3.685
3.67
3.675
3.67
3.66
3.675
3.66
3.665
3.645
3.91
3.82
3.775
3.735
3.735
3.7
3.695
3.695
3.69
3.71
3.775
3.845
3.96
4.045
4.185
4.345
4.555
4.74
4.92
5.03
4.895
4.64
4.395
4.135
3.89
3.775
3.69
3.65
3.65
3.67
3.7
3.645
3.615
3.605
3.595
3.575
3.57
3.57
3.565
3.555
3.565
3.565
3.57
3.57
3.555
3.54
3.53
3.52
3.53
3.535
3.545
3.54
3.53
3.535
3.535
3.53
3.54
3.54
3.54
3.53
3.52
3.53
3.515
3.5
3.505
3.505
3.515
3.495
3.5
3.485
3.485
3.485
3.485
3.475
3.49
3.495
3.475
3.46
3.48
3.475
3.5
3.515
3.515
3.545
3.555
3.565
3.565
3.6
3.63
3.65
3.675
3.7
3.745
3.775
3.81
3.825
3.835
3.86
3.87
3.88
3.875
3.865
3.86
3.845
3.825
3.83
3.815
3.79
3.775
3.745
3.735
3.725
3.73
3.72
3.71
3.7
3.695
3.695
3.7
3.695
3.7
3.71
3.695
3.695
3.695
3.685
3.69
3.695
3.695
3.695
3.68
3.675
3.685
3.665
3.67
3.665
3.67
3.675
3.675
3.665
3.68
3.67
3.66
3.66
3.66
3.655
3.66
3.67
3.67
3.665
3.675
3.675
3.675
3.665
3.675
3.68
3.685
3.675
3.675
3.675
3.675
3.67
3.675
3.665
3.675
3.67
3.68
3.685
3.695
3.68
3.665
3.65
3.665
3.665
3.695
3.685
3.695
3.695
3.69
3.675
3.685
3.685
3.695
3.695
3.7
3.695
3.675
3.68
3.695
3.68
3.675
3.685
3.68
3.68
3.695
3.695
3.685
3.7
3.725
3.75
3.755
3.75
3.77
3.77
3.78
3.79
3.805
3.81
3.82
3.825
3.85
3.88
3.865
3.835
3.815
3.79
3.78
3.77
3.755
3.73
3.725
3.695
3.685
3.695
3.695
3.695
3.695
3.67
3.65
3.675
3.665
3.665
3.665
3.67
3.675
3.67
3.675
3.68
3.695
3.74
3.825
3.91
4.02
4.17
4.32
4.505
4.66
4.85
4.97
4.98
4.7
4.465
4.23
3.985
3.805
3.715
3.65
3.64
3.67
3.67
3.66
3.65
3.64
3.595
3.59
3.565
3.57
3.575
3.57
3.575
3.565
3.565
3.565
3.565
3.56
3.57
3.57
3.56
3.555
3.56
3.55
3.565
3.56
3.56
3.565
3.545
3.55
3.535
3.54
3.56
3.56
3.56
3.56
3.555
3.565
3.555
3.535
3.53
3.52
3.5
3.785
3.67
3.62
3.57
3.58
3.565
3.545
3.55
3.56
3.55
3.555
3.54
3.55
3.565
3.59
3.595
3.625
3.645
3.675
3.72
3.755
3.785
3.82
3.845
3.875
3.88
3.885
3.9
3.91
3.89
3.895
3.875
3.86
3.865
3.845
3.82
3.805
3.78
3.785
3.78
3.77
3.77
3.76
3.755
3.755
3.745
3.745
3.735
3.74
3.735
3.73
3.73
3.72
3.735
3.74
3.735
3.72
3.72
3.71
3.73
3.765
3.74
3.72
3.72
3.72
3.73
3.735
3.72
3.72
3.71
3.72
3.72
3.735
3.7
3.715
3.705
3.715
3.72
3.705
3.7
3.695
3.695
3.695
3.695
3.695
3.715
3.7
3.715
3.715
3.72
3.705
3.715
3.715
3.705
3.695
3.715
3.7
3.7
3.7
3.715
3.705
3.705
3.7
3.7
3.695
3.695
3.695
3.7
3.695
3.715
3.7
3.7
3.72
3.705
3.715
3.695
3.695
3.7
3.71
3.695
3.7
3.695
3.7
3.705
3.725
3.74
3.75
3.755
3.775
3.775
3.775
3.775
3.805
3.825
3.845
3.83
3.84
3.87
3.89
3.88
3.86
3.85
3.825
3.82
3.8
3.785
3.745
3.715
3.695
3.7
3.685
3.685
3.675
3.675
3.67
3.68
3.685
3.67
3.685
3.69
3.675
3.67
3.695
3.67
3.685
3.705
3.76
3.825
3.9
4.03
4.145
4.295
4.455
4.65
4.825
4.95
4.995
4.705
4.47
4.25
3.99
3.82
3.73
3.665
3.655
3.66
3.67
3.66
3.66
3.625
3.63
3.6
3.595
3.585
3.58
3.565
3.565
3.565
3.565
3.57
3.565
3.565
3.58
3.575
3.57
3.565
3.54
3.55
3.54
3.555
3.535
3.56
3.565
3.555
3.555
3.535
3.54
3.53
3.53
3.535
3.53
3.51
3.52
3.52
3.52
3.525
3.52
3.52
3.52
3.52
3.515
3.505
3.505
3.505
3.515
3.53
3.53
3.53
3.535
3.56
3.585
3.59
3.595
3.615
3.645
3.66
3.695
3.715
3.74
3.79
3.82
3.84
3.87
3.9
3.91
3.9
3.89
3.89
3.885
3.875
3.86
3.84
3.82
3.805
3.81
3.79
3.785
3.77
3.765
3.765
3.755
3.74
3.74
3.725
3.735
3.74
3.74
3.74
3.74
3.74
3.72
3.725
3.72
3.72
3.72
3.7
3.725
3.715
3.715
3.7
3.72
3.7
3.715
3.705
3.71
3.7
3.715
3.71
3.715
3.66
3.66
3.66
3.675
3.675
3.695
3.7
3.7
3.695
3.685
3.695
3.695
3.685
3.685
3.695
3.695
3.665
3.685
3.695
3.705
3.695
3.695
3.695
3.695
3.69
3.7
3.695
3.695
3.695
3.695
3.685
3.695
3.695
3.695
3.695
3.695
3.695
3.685
3.69
3.68
3.685
3.695
3.695
3.695
3.705
3.7
3.7
3.7
3.705
3.695
3.695
3.69
3.695
3.71
3.715
3.735
3.745
3.73
3.755
3.77
3.785
3.79
3.78
3.805
3.825
3.82
3.83
3.82
3.825
3.87
3.89
3.87
3.845
3.81
3.805
3.785
3.765
3.73
3.715
3.69
3.68
3.675
3.68
3.665
3.665
3.66
3.665
3.675
3.675
3.69
3.66
3.665
3.67
3.685
3.67
3.67
3.685
3.735
3.8
3.88
4.005
4.105
4.265
4.45
4.625
4.805
4.94
4.99
4.75
4.525
4.305
4.055
3.86
3.74
3.68
3.675
3.695
3.71
3.695
3.685
3.63
3.62
3.61
3.595
3.57
3.56
3.555
3.555
3.56
3.55
3.54
3.535
3.53
3.555
3.56
3.54
3.55
3.545
3.545
3.54
3.54
3.54
3.55
3.54
3.535
3.525
3.52
3.52
3.515
3.52
3.515
3.51
3.495
3.505
3.505
3.515
3.51
3.505
3.49
3.52
3.515
3.515
3.485
3.485
3.495
3.505
3.52
3.52
3.52
3.52
3.54
3.54
3.565
3.585
3.605
3.62
3.655
3.675
3.7
3.74
3.775
3.82
3.83
3.86
3.87
3.88
3.9
3.91
3.89
3.875
3.885
3.86
3.825
3.81
3.795
3.79
3.775
3.765
3.78
3.75
3.745
3.745
3.735
3.725
3.705
3.72
3.7
3.71
3.695
3.715
3.715
3.71
3.715
3.715
3.695
3.695
3.685
3.7
3.705
3.695
3.7
3.695
3.685
3.685
3.685
3.69
3.695
3.695
3.7
3.685
3.695
3.685
3.695
3.685
3.695
3.69
3.695
3.695
3.71
3.71
3.695
3.685
3.695
3.695
3.695
3.685
3.69
3.7
3.695
3.7
3.685
3.69
3.66
3.685
3.695
3.695
3.695
3.715
3.7
3.7
3.7
3.695
3.7
3.69
3.685
3.695
3.695
3.7
3.715
3.715
3.705
3.695
3.695
3.695
3.7
3.695
3.7
3.715
3.705
3.725
3.715
3.725
3.74
3.755
3.755
3.765
3.775
3.785
3.805
3.82
3.825
3.84
3.825
3.835
3.845
3.89
3.885
3.87
3.865
3.815
3.805
3.795
3.775
3.745
3.72
3.715
3.705
3.69
3.685
3.68
3.685
3.695
3.68
3.685
3.685
3.68
3.665
3.67
3.67
3.67
3.665
3.67
3.685
3.74
3.815
3.88
4.02
4.115
4.26
4.415
4.6
4.81
4.96
4.97
4.69
4.45
4.215
3.97
3.78
3.695
3.645
3.635
3.65
3.655
3.64
3.645
3.64
3.63
3.62
3.595
3.575
3.59
3.595
3.6
3.59
3.595
3.57
3.585
3.585
3.585
3.57
3.575
3.595
3.585
3.57
3.565
3.56
3.555
3.56
3.555
3.565
3.56
3.56
3.545
3.55
3.545
3.55
3.555
3.565
3.545
3.535
3.535
3.525
3.525
3.52
3.53
3.505
3.505
3.52
3.52
3.52
3.52
3.52
3.54
3.535
3.545
3.56
3.565
3.59
3.61
3.63
3.65
3.68
3.7
3.735
3.76
3.785
3.825
3.86
3.865
3.875
3.89
3.89
3.9
3.885
3.88
3.875
3.86
3.83
3.82
3.805
3.78
3.775
3.76
3.755
3.755
3.745
3.74
3.74
3.725
3.725
3.715
3.715
3.72
3.72
3.715
3.7
3.72
3.695
3.715
3.715
3.715
3.705
3.705
3.705
3.71
3.71
3.705
3.7
3.695
3.7
3.705
3.705
3.715
3.7
3.7
3.695
3.71
3.695
3.695
3.69
3.695
3.695
3.69
3.685
3.695
3.685
3.69
3.685
3.685
3.7
3.695
3.685
3.675
3.67
3.68
3.675
3.675
3.675
3.675
3.67
3.675
3.65
3.695
3.685
3.67
3.665
3.675
3.68
3.695
3.685
3.69
3.685
3.685
3.68
3.68
3.675
3.685
3.685
3.675
3.675
3.67
3.675
3.67
3.665
3.68
3.695
3.695
3.695
3.715
3.735
3.735
3.74
3.755
3.77
3.77
3.785
3.805
3.84
3.825
3.81
3.825
3.85
3.87
3.86
3.84
3.81
3.79
3.79
3.78
3.765
3.735
3.715
3.695
3.68
3.675
3.68
3.675
3.67
3.675
3.665
3.665
3.665
3.665
3.67
3.67
3.68
3.67
3.67
3.675
3.7
3.775
3.84
3.945
4.055
4.19
4.36
4.545
4.71
4.885
5
4.915
4.695
4.46
4.21
3.96
3.86
3.75
3.7
3.695
3.735
3.715
3.685
3.655
3.645
3.625
3.6
3.595
3.58
3.57
3.56
3.57
3.56
3.56
3.565
3.57
3.565
3.575
3.565
3.57
3.565
3.565
3.57
3.565
3.555
3.545
3.555
3.555
3.55
3.52
3.535
3.53
3.525
3.515
3.52
3.52
3.54
3.555
3.535
3.55
3.52
3.52
3.52
3.52
3.52
3.515
3.495
3.51
3.505
3.52
3.53
3.52
3.555
3.565
3.57
3.585
3.605
3.61
3.63
3.655
3.68
3.715
3.765
3.8
3.815
3.84
3.85
3.89
3.91
3.92
3.91
3.91
3.88
3.875
3.87
3.865
3.845
3.86
3.835
3.825
3.81
3.78
3.775
3.77
3.765
3.765
3.75
3.755
3.76
3.75
3.74
3.74
3.74
3.725
3.74
3.725
3.71
3.725
3.735
3.735
3.74
3.745
3.74
3.73
3.73
3.74
3.735
3.715
3.71
3.71
3.7
3.715
3.715
3.735
3.735
3.735
3.72
3.71
3.715
3.715
3.725
3.71
3.715
3.715
3.7
3.695
3.715
3.72
3.705
3.705
3.7
3.7
3.7
3.695
3.715
3.735
3.73
3.7
3.72
3.715
3.715
3.705
3.715
3.72
3.725
3.71
3.7
3.71
3.715
3.715
3.7
3.72
3.715
3.72
3.715
3.725
3.72
3.72
3.72
3.73
3.72
3.72
3.715
3.71
3.715
3.73
3.76
3.765
3.78
3.775
3.78
3.79
3.785
3.815
3.825
3.845
3.84
3.865
3.87
3.89
3.91
3.89
3.86
3.855
3.84
3.825
3.8
3.775
3.76
3.73
3.72
3.7
3.725
3.7
3.71
3.7
3.7
3.695
3.7
3.705
3.71
3.695
3.7
3.7
3.705
3.715
3.735
3.745
3.805
3.87
3.96
4.08
4.205
4.33
4.525
4.735
4.905
5.005
4.875
4.58
4.345
4.115
3.88
3.74
3.665
3.645
3.635
3.655
3.67
3.67
3.66
3.65
3.63
3.615
3.61
3.605
3.595
3.58
3.565
3.58
3.59
3.575
3.58
3.585
3.585
3.585
3.575
3.585
3.58
3.575
3.575
3.58
3.585
3.56
3.57
3.56
3.555
3.56
3.56
3.555
3.54
3.555
3.56
3.54
3.525
3.53
3.565
3.555
3.53
3.53
3.52
3.53
3.53
3.55
3.54
3.54
3.535
3.555
3.555
3.56
3.555
3.59
3.58
3.61
3.63
3.645
3.665
3.695
3.72
3.745
3.775
3.81
3.835
3.865
3.875
3.9
3.915
3.91
3.91
3.9
3.905
3.89
3.865
3.845
3.825
3.81
3.81
3.81
3.795
3.775
3.77
3.765
3.765
3.755
3.74
3.745
3.735
3.74
3.74
3.745
3.745
3.745
3.74
3.74
3.73
3.705
3.715
3.73
3.665
3.715
3.735
3.72
3.72
3.73
3.72
3.72
3.715
3.7
3.7
3.715
3.695
3.71
3.7
3.715
3.695
3.71
3.7
3.7
3.695
3.7
3.7
3.715
3.7
3.695
3.7
3.695
3.7
3.695
3.695
3.695
3.7
3.695
3.695
3.69
3.695
3.695
3.7
3.71
3.705
3.69
3.7
3.7
3.695
3.695
3.695
3.7
3.7
3.7
3.7
3.7
3.7
3.69
3.7
3.695
3.695
3.695
3.695
3.685
3.695
3.7
3.715
3.73
3.725
3.715
3.72
3.74
3.74
3.755
3.775
3.775
3.775
3.785
3.82
3.83
3.84
3.83
3.825
3.85
3.875
3.88
3.845
3.82
3.805
3.8
3.785
3.77
3.74
3.71
3.685
3.675
3.685
3.67
3.665
3.665
3.67
3.665
3.665
3.675
3.665
3.665
3.665
3.67
3.675
3.675
3.685
3.72
3.745
3.825
3.95
4.025
4.175
4.325
4.515
4.705
4.895
4.99
4.925
4.67
4.435
4.19
3.965
3.825
3.74
3.675
3.675
3.695
3.695
3.655
3.65
3.61
3.6
3.59
3.565
3.57
3.56
3.555
3.54
3.55
3.55
3.545
3.545
3.56
3.55
3.54
3.53
3.535
3.53
3.54
3.535
3.52
3.525
3.52
3.535
3.53
3.53
3.53
3.53
3.53
3.53
3.52
3.51
3.51
3.495
3.495
3.49
3.495
3.5
3.485
3.5
3.51
3.51
3.5
3.5
3.5
3.505
3.505
3.52
3.53
3.525
3.53
3.56
3.57
3.595
3.605
3.63
3.655
3.685
3.72
3.745
3.77
3.81
3.84
3.85
3.87
3.885
3.885
3.88
3.865
3.865
3.86
3.84
3.825
3.815
3.81
3.785
3.78
3.765
3.76
3.745
3.755
3.74
3.72
3.71
3.73
3.72
3.715
3.7
3.695
3.695
3.715
3.715
3.72
3.705
3.705
3.705
3.715
3.71
3.71
3.7
3.7
3.695
3.7
3.695
3.715
3.7
3.69
3.685
3.685
3.685
3.69
3.685
3.685
3.695
3.69
3.695
3.685
3.69
3.7
3.715
3.695
3.715
3.695
3.685
3.69
3.695
3.695
3.685
3.685
3.695
3.695
3.68
3.675
3.69
3.685
3.685
3.695
3.695
3.685
3.695
3.69
3.695
3.715
3.72
3.715
3.71
3.695
3.695
3.7
3.695
3.695
3.71
3.715
3.72
3.71
3.695
3.71
3.71
3.7
3.72
3.73
3.725
3.71
3.72
3.74
3.755
3.765
3.77
3.795
3.805
3.795
3.81
3.845
3.855
3.775
3.825
3.83
3.865
3.88
3.88
3.86
3.84
3.835
3.81
3.79
3.775
3.745
3.715
3.71
3.715
3.725
3.705
3.71
3.71
3.715
3.7
3.695
3.68
3.685
3.675
3.685
3.69
3.695
3.685
3.695
3.715
3.77
3.86
3.93
4.035
4.165
4.32
4.51
4.675
4.88
4.995
4.955
4.68
4.435
4.195
3.94
3.81
3.71
3.675
3.665
3.705
3.695
3.685
3.665
3.65
3.63
3.625
3.615
3.605
3.605
3.595
3.595
3.575
3.61
3.615
3.59
3.58
3.565
3.57
3.57
3.565
3.565
3.56
3.585
3.565
3.565
3.56
3.555
3.57
3.565
3.575
3.565
3.565
3.56
3.545
3.54
3.53
3.555
3.565
3.555
3.535
3.535
3.54
3.54
3.55
3.555
3.55
3.52
3.525
3.535
3.53
3.54
3.54
3.545
3.56
3.585
3.61
3.615
3.65
3.675
3.695
3.72
3.765
3.79
3.815
3.855
3.895
3.915
3.9
3.88
3.89
3.915
3.915
3.89
3.885
3.88
3.845
3.84
3.81
3.79
3.785
3.795
3.795
3.795
3.78
3.77
3.755
3.755
3.76
3.77
3.74
3.74
3.74
3.74
3.74
3.735
3.74
3.735
3.745
3.725
3.73
3.705
3.715
3.71
3.74
3.735
3.74
3.74
3.735
3.735
3.715
3.71
3.71
3.725
3.715
3.72
3.715
3.71
3.7
3.725
3.735
3.725
3.73
3.72
3.715
3.71
3.72
3.72
3.725
3.725
3.735
3.72
3.72
3.725
3.72
3.72
3.715
3.735
3.715
3.71
3.695
3.705
3.71
3.725
3.72
3.715
3.7
3.715
3.72
3.715
3.705
3.715
3.715
3.725
3.73
3.73
3.705
3.7
3.715
3.715
3.72
3.725
3.72
3.74
3.74
3.75
3.755
3.755
3.78
3.785
3.805
3.81
3.81
3.825
3.86
3.85
3.865
3.87
3.87
3.91
3.92
3.9
3.865
3.86
3.84
3.825
3.815
3.79
3.755
3.735
3.725
3.715
3.715
3.7
3.7
3.695
3.705
3.695
3.7
3.685
3.695
3.705
3.715
3.725
3.72
3.71
3.72
3.755
3.815
3.91
4.005
4.13
4.26
4.435
4.625
4.78
4.9
5.02
4.815
4.565
4.345
4.105
3.88
3.785
3.72
3.685
3.695
3.7
3.7
3.68
3.67
3.65
3.64
3.63
3.62
3.62
3.6
3.58
3.6
3.605
3.595
3.58
3.585
3.575
3.585
3.58
3.59
3.6
3.585
3.675
3.765
3.71
3.66
3.625
3.62
3.62
3.575
3.58
3.575
3.565
3.56
3.55
3.56
3.56
3.54
3.53
3.54
3.54
3.55
3.555
3.55
3.555
3.55
3.555
3.54
3.54
3.53
3.535
3.55
3.56
3.56
3.59
3.57
3.61
3.625
3.655
3.66
3.695
3.715
3.77
3.79
3.82
3.85
3.88
3.9
3.915
3.935
3.94
3.925
3.915
3.905
3.885
3.89
3.875
3.86
3.84
3.815
3.825
3.81
3.805
3.805
3.775
3.775
3.765
3.77
3.755
3.745
3.745
3.745
3.755
3.76
3.765
3.77
3.755
3.74
3.725
3.735
3.72
3.735
3.715
3.72
3.72
3.72
3.72
3.715
3.72
3.71
3.71
3.715
3.72
3.73
3.71
3.695
3.72
3.71
3.71
3.715
3.715
3.72
3.725
3.71
3.735
3.72
3.715
3.7
3.71
3.71
3.71
3.7
3.71
3.72
3.7
3.705
3.71
3.71
3.71
3.72
3.72
3.72
3.715
3.72
3.715
3.705
3.7
3.7
3.71
3.71
3.715
3.715
3.71
3.715
3.71
3.695
3.71
3.7
3.72
3.735
3.72
3.705
3.705
3.705
3.695
3.705
3.715
3.735
3.74
3.755
3.77
3.77
3.785
3.78
3.795
3.81
3.825
3.85
3.845
3.84
3.87
3.895
3.905
3.88
3.865
3.845
3.84
3.82
3.8
3.755
3.725
3.7
3.71
3.7
3.695
3.695
3.695
3.695
3.695
3.695
3.675
3.675
3.675
3.685
3.68
3.7
3.705
3.7
3.705
3.755
3.825
3.91
4.015
4.125
4.27
4.455
4.61
4.825
4.93
5.01
4.805
4.565
4.345
4.095
3.885
3.78
3.72
3.695
3.71
3.725
3.71
3.68
3.66
3.64
3.625
3.605
3.58
3.585
3.585
3.6
3.58
3.59
3.575
3.58
3.585
3.585
3.59
3.59
3.575
3.565
3.565
3.545
3.545
3.565
3.565
3.565
3.58
3.575
3.57
3.56
3.55
3.54
3.53
3.54
3.54
3.54
3.53
3.54
3.54
3.54
3.55
3.54
3.55
3.54
3.52
3.52
3.53
3.53
3.54
3.535
3.54
3.555
3.56
3.565
3.575
3.595
3.605
3.63
3.655
3.695
3.745
3.77
3.775
3.81
3.825
3.865
3.9
3.945
3.91
3.93
3.915
3.91
3.9
3.89
3.89
3.88
3.845
3.825
3.82
3.805
3.81
3.81
3.82
3.795
3.775
3.77
3.77
3.765
3.755
3.745
3.755
3.755
4.005
3.9
3.87
3.825
3.8
3.775
3.77
3.76
3.74
3.74
3.72
3.73
3.73
3.705
3.725
3.73
3.725
3.72
3.73
3.705
3.7
3.715
3.72
3.715
3.72
3.73
3.72
3.735
3.74
3.74
3.74
3.735
3.73
3.72
3.72
3.735
3.735
3.72
3.73
3.73
3.705
3.72
3.73
3.745
3.74
3.74
3.725
3.74
3.725
3.735
3.735
3.735
3.71
3.72
3.735
3.725
3.73
3.72
3.735
3.735
3.74
3.735
3.74
3.72
3.74
3.725
3.725
3.72
3.72
3.715
3.71
3.72
3.74
3.755
3.77
3.775
3.775
3.785
3.8
3.8
3.825
3.835
3.855
3.84
3.84
3.845
3.88
3.895
3.89
3.875
3.86
3.84
3.825
3.81
3.785
3.77
3.745
3.73
3.705
3.705
3.69
3.685
3.695
3.695
3.7
3.7
3.7
3.695
3.71
3.695
3.685
3.705
3.695
3.715
3.725
3.77
3.85
3.93
4.04
4.17
4.34
4.51
4.705
4.875
5.005
4.91
4.625
4.375
4.13
3.885
3.755
3.67
3.615
3.62
3.63
3.645
3.655
3.65
3.63
3.605
3.595
3.595
3.585
3.575
3.57
3.57
3.56
3.565
3.565
3.57
3.565
3.575
3.575
3.58
3.575
3.57
3.565
3.555
3.555
3.535
3.54
3.54
3.52
3.55
3.55
3.535
3.56
3.545
3.54
3.555
3.55
3.54
3.55
3.535
3.54
3.53
3.52
3.515
3.51
3.53
3.515
3.515
3.515
3.52
3.53
3.525
3.53
3.535
3.545
3.57
3.6
3.615
3.615
3.645
3.665
3.71
3.74
3.755
3.78
3.81
3.835
3.87
3.875
3.875
3.89
3.88
3.88
3.875
3.855
3.845
3.845
3.825
3.805
3.78
3.77
3.77
3.765
3.745
3.745
3.74
3.74
3.74
3.74
3.725
3.725
3.72
3.735
3.71
3.715
3.7
3.72
3.725
3.71
3.715
3.73
3.72
3.715
3.725
3.725
3.725
3.71
3.715
3.715
3.715
3.7
3.7
3.695
3.705
3.685
3.685
3.695
3.7
3.695
3.7
3.71
3.7
3.7
3.69
3.695
3.7
3.71
3.7
3.695
3.695
3.715
3.7
3.7
3.695
3.7
3.705
3.71
3.705
3.71
3.715
3.7
3.7
3.71
3.7
3.695
3.7
3.71
3.7
3.7
3.695
3.705
3.7
3.7
3.7
3.71
3.7
3.7
3.695
3.7
3.695
3.7
3.71
3.715
3.71
3.715
3.645
3.675
3.695
3.715
3.74
3.74
3.745
3.775
3.795
3.785
3.8
3.82
3.825
3.825
3.83
3.86
3.88
3.885
3.875
3.86
3.825
3.82
3.79
3.775
3.74
3.74
3.7
3.685
3.67
3.68
3.675
3.695
3.695
3.69
3.68
3.67
3.66
3.66
3.675
3.685
3.69
3.685
3.665
3.675
3.705
3.775
3.845
3.97
4.07
4.215
4.395
4.575
4.78
4.945
5.03
4.865
4.635
4.395
4.135
3.915
3.82
3.71
3.695
3.695
3.715
3.68
3.665
3.645
3.635
3.59
3.585
3.575
3.565
3.56
3.555
3.555
3.555
3.545
3.57
3.55
3.535
3.55
3.54
3.565
3.55
3.55
3.54
3.535
3.535
3.545
3.535
3.545
3.52
3.52
3.515
3.5
3.52
3.52
3.52
3.5
3.5
3.515
3.505
3.505
3.52
3.495
3.485
3.485
3.495
3.48
3.5
3.49
3.505
3.49
3.49
3.515
3.5
3.5
3.535
3.555
3.58
3.575
3.595
3.62
3.65
3.675
3.72
3.745
3.78
3.805
3.84
3.86
3.86
3.87
3.875
3.9
3.87
3.855
3.86
3.835
3.815
3.815
3.815
3.78
3.77
3.775
3.74
3.745
3.735
3.725
3.725
3.715
3.7
3.715
3.715
3.71
3.715
3.715
3.705
3.695
3.71
3.7
3.7
3.695
3.685
3.69
3.69
3.685
3.695
3.69
3.675
3.685
3.695
3.7
3.685
3.685
3.69
3.695
3.685
3.685
3.675
3.67
3.67
3.675
3.665
3.67
3.67
3.685
3.675
3.68
3.67
3.685
3.665
3.67
3.675
3.685
3.675
3.67
3.685
3.685
3.685
3.68
3.7
3.695
3.69
3.695
3.685
3.69
3.67
3.685
3.68
3.695
3.68
3.69
3.675
3.67
3.665
3.685
3.67
3.675
3.685
3.69
3.695
3.695
3.7
3.695
3.685
3.675
3.695
3.71
3.715
3.74
3.74
3.735
3.74
3.765
3.78
3.79
3.81
3.82
3.82
3.82
3.825
3.87
3.875
3.865
3.85
3.835
3.81
3.805
3.775
3.745
3.73
3.705
3.695
3.705
3.7
3.675
3.675
3.675
3.68
3.68
3.675
3.665
3.665
3.665
3.68
3.685
3.68
3.675
3.695
3.715
3.785
3.845
3.935
4.07
4.21
4.315
4.51
4.695
4.88
5.005
4.87
4.595
4.34
4.1
3.875
3.745
3.665
3.6
3.625
3.66
3.68
3.665
3.635
3.615
3.605
3.61
3.52
3.27
3.365
3.425
3.475
3.505
3.52
3.535
3.535
3.555
3.545
3.56
3.56
3.565
3.575
3.555
3.56
3.565
3.555
3.555
3.54
3.555
3.54
3.525
3.52
3.525
3.54
3.535
3.53
3.53
3.52
3.52
3.515
3.52
3.52
3.52
3.525
3.52
3.51
3.52
3.52
3.53
3.54
3.535
3.545
3.555
3.56
3.57
3.59
3.585
3.625
3.65
3.66
3.7
3.72
3.765
3.785
3.81
3.825
3.855
3.865
3.89
3.91
3.91
3.915
3.915
3.89
3.87
3.865
3.845
3.845
3.825
3.81
3.8
3.785
3.78
3.755
3.76
3.75
3.745
3.755
3.74
3.74
3.735
3.73
3.72
3.72
3.71
3.72
3.715
3.705
3.715
3.725
3.715
3.73
3.725
3.72
3.7
3.705
3.72
3.72
3.73
3.715
3.725
3.715
3.72
3.705
3.715
3.705
3.715
3.71
3.735
3.705
3.715
3.7
3.695
3.68
3.7
3.685
3.7
3.685
3.695
3.69
3.695
3.695
3.695
3.695
3.695
3.695
3.695
3.695
3.685
3.7
3.695
3.705
3.715
3.725
3.71
3.7
3.685
3.695
3.7
3.695
3.69
3.705
3.685
3.695
3.685
3.685
3.695
3.695
3.695
3.695
3.695
3.69
3.69
3.685
3.695
3.715
3.74
3.74
3.755
3.755
3.775
3.785
3.79
3.8
3.825
3.825
3.825
3.83
3.825
3.86
3.875
3.86
3.855
3.825
3.82
3.81
3.79
3.77
3.74
3.71
3.68
3.67
3.675
3.685
3.685
3.68
3.66
3.68
3.67
3.67
3.66
3.67
3.665
3.685
3.685
3.695
3.675
3.7
3.77
3.835
3.925
4.025
4.175
4.345
4.54
4.735
4.885
4.97
4.885
4.64
4.42
4.17
3.935
3.79
3.715
3.66
3.665
3.675
3.675
3.65
3.63
3.62
3.605
3.595
3.565
3.565
3.56
3.555
3.565
3.57
3.57
3.565
3.55
3.555
3.555
3.56
3.545
3.54
3.56
3.54
3.54
3.55
3.54
3.54
3.53
3.525
3.52
3.515
3.52
3.525
3.52
3.54
3.56
3.52
3.51
3.51
3.515
3.52
3.515
3.505
3.485
3.5
3.49
3.515
3.485
3.495
3.5
3.495
3.515
3.52
3.52
3.54
3.565
3.575
3.595
3.62
3.635
3.66
3.685
3.695
3.735
3.77
3.795
3.825
3.855
3.86
3.88
3.88
3.885
3.89
3.87
3.86
3.855
3.825
3.82
3.805
3.805
3.79
3.79
3.68
3.71
3.73
3.715
3.735
3.725
3.735
3.74
3.725
3.72
3.715
3.72
3.705
3.71
3.705
3.695
3.695
3.695
3.695
3.7
3.685
3.68
3.685
3.695
3.7
3.7
3.695
3.695
3.68
3.685
3.69
3.695
3.685
3.695
3.7
3.72
3.715
3.695
3.68
3.68
3.685
3.675
3.665
3.675
3.675
3.67
3.685
3.685
3.68
3.685
3.675
3.685
3.67
3.68
3.695
3.695
3.695
3.695
3.685
3.675
3.685
3.7
3.685
3.685
3.685
3.685
3.685
3.675
3.68
3.68
3.675
3.69
3.685
3.675
3.665
3.68
3.695
3.69
3.685
3.685
3.685
3.67
3.685
3.7
3.7
3.72
3.74
3.74
3.745
3.77
3.77
3.78
3.79
3.825
3.845
3.83
3.82
3.825
3.865
3.87
3.845
3.83
3.795
3.805
3.78
3.77
3.74
3.73
3.695
3.67
3.66
3.66
3.655
3.67
3.67
3.675
3.665
3.66
3.65
3.65
3.64
3.645
3.665
3.665
3.68
3.675
3.695
3.77
3.85
3.955
4.08
4.215
4.39
4.565
4.755
4.905
5.005
4.795
4.56
4.325
4.075
3.855
3.74
3.65
3.625
3.64
3.665
3.655
3.63
3.595
3.59
3.585
3.565
3.555
3.555
3.54
3.53
3.53
3.535
3.52
3.54
3.545
3.555
3.54
3.52
3.52
3.52
3.52
3.535
3.545
3.54
3.54
3.54
3.535
3.53
3.52
3.525
3.53
3.525
3.52
3.51
3.51
3.5
3.495
3.52
3.485
3.5
3.475
3.49
3.5
3.48
3.5
3.5
3.485
3.49
3.485
3.475
3.5
3.495
3.515
3.53
3.55
3.57
3.59
3.605
3.61
3.66
3.695
3.72
3.76
3.785
3.82
3.845
3.865
3.88
3.87
3.865
3.86
3.87
3.845
3.84
3.82
3.81
3.81
3.78
3.775
3.77
3.745
3.74
3.74
3.735
3.73
3.73
3.725
3.72
3.715
3.705
3.705
3.715
3.7
3.695
3.7
3.675
3.7
3.705
3.7
3.685
3.7
3.695
3.69
3.685
3.675
3.68
3.68
3.675
3.695
3.69
3.68
3.695
3.69
3.695
3.685
3.685
3.695
3.695
3.69
3.685
3.695
3.675
3.685
3.685
3.685
3.685
3.695
3.685
3.695
3.685
3.685
3.685
3.695
3.68
3.695
3.695
3.695
3.685
3.68
3.68
3.695
3.685
3.7
3.695
3.695
3.695
3.68
3.675
3.68
3.68
3.695
3.6
3.6
3.65
3.66
3.66
3.68
3.675
3.695
3.67
3.68
3.67
3.695
3.7
3.72
3.72
3.73
3.74
3.74
3.76
3.775
3.8
3.825
3.825
3.81
3.82
3.845
3.865
3.865
3.845
3.84
3.82
3.785
3.785
3.77
3.735
3.705
3.695
3.68
3.67
3.685
3.68
3.675
3.66
3.665
3.65
3.665
3.675
3.67
3.655
3.655
3.66
3.675
3.68
3.73
3.775
3.865
3.93
4.05
4.17
4.315
4.5
4.69
4.885
5.025
4.845
4.59
4.35
4.13
3.885
3.75
3.67
3.61
3.615
3.645
3.66
3.645
3.63
3.62
3.6
3.595
3.58
3.56
3.555
3.55
3.55
3.555
3.555
3.54
3.54
3.53
3.535
3.535
3.53
3.52
3.52
3.54
3.54
3.55
3.54
3.53
3.53
3.53
3.515
3.52
3.515
3.515
3.505
3.515
3.515
3.505
3.495
3.495
3.505
3.485
3.485
3.495
3.48
3.485
3.485
3.5
3.515
3.5
3.505
3.505
3.495
3.505
3.515
3.525
3.535
3.54
3.565
3.58
3.615
3.63
3.665
3.695
3.735
3.77
3.79
3.815
3.825
3.845
3.865
3.87
3.865
3.87
3.855
3.845
3.825
3.81
3.795
3.775
3.75
3.755
3.755
3.74
3.73
3.72
3.715
3.715
3.72
3.715
3.71
3.695
3.685
3.695
3.68
3.68
3.68
3.695
3.69
3.69
3.685
3.68
3.675
3.675
3.68
3.675
3.68
3.695
3.665
3.675
3.675
3.685
3.685
3.695
3.695
3.665
3.665
3.66
3.665
3.665
3.66
3.665
3.67
3.66
3.65
3.66
3.665
3.655
3.65
3.65
3.655
3.66
3.65
3.655
3.64
3.65
3.65
3.665
3.655
3.675
3.65
3.65
3.65
3.665
3.65
3.665
3.665
3.67
3.675
3.665
3.665
3.66
3.66
3.67
3.67
3.675
3.665
3.665
3.64
3.66
3.665
3.655
3.65
3.665
3.67
3.675
3.675
3.67
3.67
3.685
3.7
3.72
3.715
3.74
3.74
3.745
3.77
3.79
3.82
3.82
3.8
3.79
3.82
3.845
3.845
3.825
3.825
3.79
3.775
3.765
3.74
3.715
3.72
3.675
3.66
3.665
3.645
3.66
3.665
3.655
3.64
3.645
3.655
3.66
3.65
3.645
3.65
3.66
3.65
3.655
3.68
3.725
3.81
3.905
4
4.135
4.295
4.485
4.685
4.855
4.99
4.94
4.685
4.465
4.215
3.96
3.84
3.755
3.69
3.675
3.7
3.685
3.67
3.625
3.59
3.565
3.23
3.345
3.4
3.475
3.48
3.495
3.51
3.515
3.52
3.53
3.53
3.525
3.53
3.52
3.53
3.51
3.535
3.535
3.53
3.525
3.5
3.495
3.505
3.505
3.495
3.52
3.52
3.52
3.505
3.5
3.52
3.505
3.5
3.495
3.495
3.495
3.5
3.495
3.505
3.495
3.5
3.485
3.475
3.475
3.485
3.5
3.505
3.515
3.52
3.54
3.555
3.57
3.595
3.625
3.655
3.675
3.7
3.74
3.775
3.795
3.825
3.86
3.87
3.875
3.885
3.88
3.87
3.855
3.86
3.845
3.835
3.825
3.805
3.795
3.785
3.775
3.755
3.75
3.74
3.715
3.715
3.72
3.715
3.72
3.72
3.7
3.7
3.675
3.7
3.7
3.7
3.685
3.695
3.685
3.695
3.68
3.685
3.685
3.685
3.665
3.67
3.665
3.67
3.66
3.675
3.675
3.675
3.66
3.665
3.675
3.66
3.675
3.685
3.68
3.67
3.67
3.68
3.665
3.675
3.68
3.685
3.69
3.685
3.66
3.665
3.66
3.68
3.69
3.685
3.685
3.68
3.665
3.67
3.655
3.675
3.665
3.67
3.665
3.66
3.64
3.645
3.65
3.665
3.66
3.66
3.675
3.67
3.675
3.665
3.655
3.67
3.665
3.675
3.67
3.675
3.665
3.66
3.665
3.665
3.675
3.685
3.7
3.71
3.695
3.7
3.73
3.74
3.755
3.795
3.81
3.81
3.81
3.79
3.81
3.845
3.865
3.845
3.825
3.8
3.795
3.785
3.775
3.75
3.725
3.68
3.655
3.655
3.645
3.66
3.66
3.65
3.655
3.655
3.66
3.645
3.645
3.625
3.645
3.65
3.67
3.66
3.655
3.66
3.72
3.805
3.885
4
4.135
4.26
4.455
4.665
4.825
4.965
4.905
4.61
4.36
4.13
3.89
3.71
3.63
3.565
3.575
3.6
3.61
3.615
3.6
3.585
3.57
3.565
3.56
3.56
3.56
3.555
3.545
3.54
3.525
3.54
3.535
3.55
3.545
3.54
3.555
3.545
3.535
3.535
3.53
3.52
3.52
3.52
3.52
3.52
3.52
3.535
3.52
3.53
3.52
3.51
3.49
3.51
3.51
3.505
3.52
3.52
3.52
3.525
3.52
3.515
3.51
3.5
3.495
3.495
3.49
3.505
3.52
3.52
3.52
3.54
3.56
3.575
3.59
3.605
3.63
3.665
3.68
3.735
3.745
3.78
3.825
3.825
3.86
3.87
3.885
3.88
3.87
3.865
4.055
4
3.93
3.9
3.86
3.825
3.795
3.775
3.77
3.74
3.74
3.735
3.725
3.745
3.73
3.745
3.74
3.72
3.7
3.71
3.695
3.695
3.71
3.7
3.7
3.695
3.69
3.7
3.695
3.695
3.7
3.71
3.71
3.715
3.71
3.7
3.7
3.695
3.71
3.715
3.71
3.695
3.695
3.695
3.69
3.695
3.695
3.685
3.685
3.68
3.695
3.69
3.69
3.685
3.685
3.68
3.68
3.685
3.685
3.69
3.705
3.7
3.7
3.695
3.695
3.705
3.685
3.685
3.69
3.7
3.685
3.685
3.68